0,0,1,0,1,0,1
0.000054,0,1,0,1,0,0
0.000182,0,1,0,0,1,1
0.000295,0,1,0,0,1,0
0.000413,0,1,0,0,0,1
0.000541,0,1,0,0,0,0
0.000672,0,0,0,0,0,0
0.000673,0,1,0,0,0,0
0.00068,0,0,1,1,1,1
0.000804,0,0,1,1,1,0
0.000952,0,0,1,1,0,1
0.001099,0,0,1,1,0,0
0.00128,0,0,1,0,1,1
0.001427,0,0,1,0,1,0
0.001632,0,0,1,0,0,1
0.001847,0,0,1,0,0,0
0.002091,0,0,0,1,1,1
0.002409,0,0,0,1,1,0
0.002765,0,0,0,1,0,1
0.003257,0,0,0,1,0,0
0.004253,0,0,0,0,0,0
0.004256,0,0,0,0,1,1
0.004822,0,0,0,0,0,0
0.004823,0,0,0,1,0,0
0.004824,0,0,0,0,0,0
0.004825,0,0,0,1,0,0
0.005258,0,0,0,1,0,1
0.005419,0,0,0,1,1,0
0.005556,0,0,0,1,1,1
0.005721,0,0,1,0,0,0
0.005881,0,0,1,0,0,1
0.006019,0,0,1,0,1,0
0.006175,0,0,1,0,1,1
0.006296,0,0,1,0,0,0
0.006297,0,0,1,1,0,0
0.006453,0,0,1,1,0,1
0.006579,0,0,1,1,1,0
0.006716,0,0,1,1,1,1
0.006846,0,0,0,0,0,0
0.006847,0,1,0,0,0,0
0.006971,0,1,0,0,0,1
0.007103,0,1,0,0,1,0
0.007211,0,1,0,0,1,1
0.007335,0,1,0,1,0,0
0.007452,0,1,0,1,0,1
0.007555,0,1,0,1,0,0
0.007556,0,1,0,1,1,0
0.007691,0,1,0,1,1,1
0.007811,0,1,1,0,0,0
0.007887,0,1,1,0,0,1
0.008008,0,1,1,0,1,0
0.008118,0,1,1,0,1,1
0.00822,0,1,1,1,0,0
0.008338,0,1,1,1,0,1
0.008441,0,1,1,1,1,0
0.008544,0,1,1,1,1,1
0.008654,1,0,0,0,0,0
0.008763,1,0,0,0,0,1
0.00886,1,0,0,0,1,0
0.008961,1,0,0,0,1,1
0.009081,1,0,0,1,0,0
0.00918,1,0,0,1,0,1
0.00929,1,0,0,1,0,0
0.009291,1,0,0,1,1,0
0.00941,1,0,0,1,1,1
0.009516,1,0,1,0,0,0
0.009615,1,0,1,0,0,1
0.009728,1,0,1,0,1,0
0.00984,1,0,1,0,1,1
0.009959,1,0,1,1,0,0
0.010078,1,0,1,1,0,1
0.01018,1,0,1,1,1,0
0.010296,1,0,1,1,1,1
0.010409,1,1,0,0,0,0
0.010525,1,1,0,0,0,1
0.010648,1,1,0,0,1,0
0.010804,1,1,0,0,1,1
0.010909,1,1,0,1,0,0
0.011047,1,1,0,1,0,1
0.011207,1,1,0,1,1,0
0.011333,1,1,0,1,1,1
0.011504,1,1,1,0,0,0
0.011644,1,1,1,0,0,1
0.011789,1,1,1,0,1,0
0.012005,1,1,1,0,1,1
0.0122,1,1,1,1,0,0
0.012392,1,1,1,1,0,1
0.012746,1,1,1,1,1,0
0.013104,1,1,1,1,1,1
0.014377,1,1,1,1,1,0
0.014378,1,1,1,1,1,1
0.01438,1,1,1,1,1,0
0.014381,1,1,1,1,1,1
0.014384,1,1,1,1,1,0
0.014731,1,1,1,1,0,0
0.014732,1,1,1,1,1,0
0.014734,1,1,1,1,0,0
0.014735,1,1,1,1,0,1
0.015089,1,1,1,1,0,0
0.015294,1,1,1,0,1,1
0.01548,1,1,1,0,1,0
0.0157,1,1,1,0,0,1
0.015844,1,1,1,0,0,0
0.015995,1,1,0,0,0,0
0.015996,1,1,1,0,0,0
0.015997,1,1,0,0,0,0
0.015998,1,1,1,0,0,0
0.015999,1,1,0,0,0,0
0.016,1,1,1,0,0,0
0.016001,1,1,0,0,0,0
0.016002,1,1,1,0,0,0
0.016003,1,1,0,0,0,0
0.016004,1,1,1,0,0,0
0.016005,1,1,0,0,0,0
0.016006,1,1,1,0,0,0
0.016007,1,1,0,0,0,0
0.016008,1,1,1,0,0,0
0.016009,1,1,0,0,0,0
0.01601,1,1,1,0,0,0
0.016011,1,1,0,0,0,0
0.016026,1,1,0,0,1,1
0.016027,1,1,0,0,0,0
0.016041,1,1,0,0,1,1
0.016042,1,1,1,0,0,0
0.016043,1,1,0,1,1,1
0.016156,1,1,0,1,1,0
0.016281,1,1,0,1,0,1
0.016439,1,1,0,1,0,0
0.01658,1,1,0,0,1,1
0.016693,1,1,0,0,1,0
0.01684,1,1,0,0,0,1
0.016966,1,1,0,0,0,0
0.017087,1,0,0,0,0,0
0.017088,1,1,0,0,0,0
0.017122,1,0,0,0,0,0
0.017124,1,1,0,0,0,0
0.017125,1,0,0,0,0,0
0.017127,1,1,0,0,0,0
0.017128,1,0,0,0,0,0
0.017131,1,1,0,0,0,0
0.017132,1,0,0,0,0,0
0.017167,1,0,0,0,1,1
0.017168,1,0,0,0,0,0
0.017176,1,0,0,0,1,1
0.017177,1,0,0,0,0,0
0.017181,1,0,1,1,1,1
0.017182,1,0,0,0,0,0
0.017187,1,0,0,0,1,1
0.017188,1,0,0,0,0,0
0.017193,1,0,1,1,1,1
0.01721,1,0,1,1,1,0
0.017315,1,0,1,1,0,1
0.017418,1,0,1,1,0,0
0.01754,1,0,1,0,1,1
0.017653,1,0,1,0,1,0
0.017769,1,0,1,0,0,1
0.017878,1,0,1,0,0,0
0.01798,1,0,0,0,0,0
0.017987,1,0,0,0,1,1
0.017988,1,0,0,0,0,0
0.017991,1,0,0,0,1,1
0.017992,1,0,0,0,0,0
0.017993,1,0,0,1,1,1
0.018084,1,0,0,1,1,0
0.018212,1,0,0,1,0,1
0.018315,1,0,0,1,0,0
0.018413,1,0,0,0,1,1
0.018536,1,0,0,0,1,0
0.018635,1,0,0,0,0,1
0.018744,1,0,0,0,0,0
0.018846,0,0,0,0,0,0
0.018847,1,0,0,0,0,0
0.018849,0,0,0,0,0,0
0.01885,1,0,0,0,0,0
0.018865,0,0,0,0,0,0
0.018871,1,0,0,0,0,0
0.018877,0,0,0,0,0,0
0.018878,1,0,0,0,0,0
0.018879,0,0,0,0,0,0
0.018886,1,0,0,0,0,0
0.01889,0,0,0,0,0,0
0.018899,1,0,0,0,0,0
0.018901,0,0,0,0,0,0
0.018943,0,0,0,0,0,1
0.018945,0,0,0,0,0,0
0.018956,0,0,0,0,0,1
0.018957,0,1,1,1,1,1
0.018959,0,0,0,0,0,0
0.01897,0,1,1,1,1,1
0.018972,0,0,0,0,0,1
0.018973,0,0,0,0,0,0
0.018981,0,1,1,1,1,1
0.018987,0,1,1,1,1,0
0.019059,0,1,1,1,0,1
0.019162,0,1,1,1,0,0
0.019279,0,1,1,0,0,0
0.01928,0,1,1,0,1,1
0.019385,0,1,1,0,1,0
0.019497,0,1,1,0,0,1
0.019617,0,1,1,0,0,0
0.019696,0,1,0,1,1,1
0.019813,0,1,0,1,1,0
0.019953,0,1,0,1,0,1
0.020054,0,1,0,1,0,0
0.020183,0,1,0,0,1,1
0.020295,0,1,0,0,1,0
0.020413,0,1,0,0,0,1
0.020541,0,1,0,0,0,0
0.020676,0,0,1,1,1,1
0.020804,0,0,1,1,1,0
0.020952,0,0,1,1,0,1
0.021099,0,0,1,1,0,0
0.021279,0,0,1,0,1,1
0.021427,0,0,1,0,1,0
0.021634,0,0,1,0,0,1
0.021847,0,0,1,0,0,0
0.02209,0,0,0,1,1,1
0.022409,0,0,0,1,1,0
0.022766,0,0,0,1,0,1
0.023258,0,0,0,1,0,0
0.024276,0,0,0,0,0,0
0.02428,0,0,0,0,1,1
0.024809,0,0,0,0,0,0
0.024811,0,0,0,1,0,0
0.02526,0,0,0,1,0,1
0.025418,0,0,0,1,1,0
0.025556,0,0,0,1,1,1
0.025719,0,0,1,0,0,0
0.02588,0,0,1,0,0,1
0.02602,0,0,1,0,1,0
0.026174,0,0,1,0,1,1
0.026296,0,0,1,0,0,0
0.026297,0,0,1,1,0,0
0.026453,0,0,1,1,0,1
0.026578,0,0,1,1,1,0
0.026715,0,0,1,1,1,1
0.026846,0,1,0,0,0,0
0.026971,0,1,0,0,0,1
0.027104,0,1,0,0,1,0
0.027212,0,1,0,0,1,1
0.027335,0,1,0,1,0,0
0.027452,0,1,0,1,0,1
0.027555,0,1,0,1,1,0
0.027691,0,1,0,1,1,1
0.027811,0,1,1,0,0,0
0.027887,0,1,1,0,0,1
0.028008,0,1,1,0,1,0
0.028117,0,1,1,0,1,1
0.028221,0,1,1,1,0,0
0.028338,0,1,1,1,0,1
0.028442,0,1,1,1,1,0
0.028545,0,1,1,1,1,1
0.028654,1,0,0,0,0,0
0.028764,1,0,0,0,0,1
0.02886,1,0,0,0,1,0
0.028962,1,0,0,0,1,1
0.029082,1,0,0,1,0,0
0.029181,1,0,0,1,0,1
0.029291,1,0,0,1,1,0
0.029411,1,0,0,1,1,1
0.029515,1,0,1,0,0,0
0.029617,1,0,1,0,0,1
0.029729,1,0,1,0,1,0
0.029841,1,0,1,0,1,1
0.029959,1,0,1,1,0,0
0.030079,1,0,1,1,0,1
0.030181,1,0,1,1,1,0
0.030297,1,0,1,1,1,1
0.030411,1,1,0,0,0,0
0.030526,1,1,0,0,0,1
0.030649,1,1,0,0,1,0
0.030805,1,1,0,0,1,1
0.030911,1,1,0,1,0,0
0.031049,1,1,0,1,0,1
0.031208,1,1,0,1,1,0
0.031335,1,1,0,1,1,1
0.031504,1,1,1,0,0,0
0.031645,1,1,1,0,0,1
0.03179,1,1,1,0,1,0
0.032007,1,1,1,0,1,1
0.032202,1,1,1,1,0,0
0.032394,1,1,1,1,0,1
0.032748,1,1,1,1,1,0
0.033108,1,1,1,1,1,1
0.034379,1,1,1,1,1,0
0.03438,1,1,1,1,1,1
0.034381,1,1,1,1,1,0
0.034728,1,1,1,1,0,1
0.034729,1,1,1,1,1,0
0.034732,1,1,1,1,0,1
0.035087,1,1,1,1,0,0
0.035294,1,1,1,0,1,1
0.035482,1,1,1,0,1,0
0.035699,1,1,1,0,0,1
0.035844,1,1,1,0,0,0
0.035991,1,1,0,0,0,0
0.035992,1,1,1,0,0,0
0.035996,1,1,0,0,0,0
0.035997,1,1,1,0,0,0
0.035998,1,1,0,0,0,0
0.035999,1,1,1,0,0,0
0.036,1,1,0,0,0,0
0.036001,1,1,1,0,0,0
0.036002,1,1,0,0,0,0
0.036003,1,1,1,0,0,0
0.036004,1,1,0,0,0,0
0.036005,1,1,1,0,0,0
0.036006,1,1,0,0,0,0
0.036023,1,1,0,0,0,1
0.036024,1,1,0,0,0,0
0.036031,1,1,0,0,1,1
0.036032,1,1,0,0,0,0
0.036034,1,1,0,0,1,1
0.036035,1,1,0,0,0,0
0.036041,1,1,0,0,1,1
0.036042,1,1,0,0,0,0
0.036045,1,1,0,0,1,1
0.036046,1,1,0,0,0,0
0.036049,1,1,0,1,1,1
0.036156,1,1,0,1,1,0
0.036281,1,1,0,1,0,1
0.036439,1,1,0,1,0,0
0.03658,1,1,0,0,1,1
0.036694,1,1,0,0,1,0
0.036842,1,1,0,0,0,1
0.036966,1,1,0,0,0,0
0.037093,1,0,0,0,0,0
0.037096,1,1,0,0,0,0
0.03712,1,0,0,0,0,0
0.037121,1,1,0,0,0,0
0.037123,1,0,0,0,0,0
0.037124,1,1,0,0,0,0
0.037126,1,0,0,0,0,0
0.037128,1,1,0,0,0,0
0.037129,1,0,0,0,0,0
0.037131,1,1,0,0,0,0
0.037132,1,0,0,0,0,0
0.037134,1,1,0,0,0,0
0.037135,1,0,0,0,0,0
0.037138,1,1,0,0,0,0
0.037139,1,0,0,0,0,0
0.037154,1,0,0,0,1,1
0.037155,1,0,0,0,0,0
0.037162,1,0,0,0,1,1
0.037163,1,0,0,0,0,0
0.037166,1,0,0,0,1,1
0.037167,1,0,0,0,0,0
0.037175,1,0,0,1,1,1
0.037176,1,0,0,0,0,0
0.03718,1,0,0,0,1,1
0.037181,1,0,0,0,0,0
0.037186,1,0,0,0,1,1
0.037187,1,0,0,0,0,0
0.037192,1,0,1,1,1,1
0.037193,1,0,0,0,0,1
0.037194,1,0,0,0,0,0
0.037196,1,0,1,1,1,1
0.037212,1,0,1,1,1,0
0.037315,1,0,1,1,0,1
0.037419,1,0,1,1,0,0
0.037541,1,0,1,0,1,1
0.037653,1,0,1,0,1,0
0.03777,1,0,1,0,0,1
0.037878,1,0,1,0,0,0
0.037981,1,0,0,0,0,0
0.037982,1,0,1,0,0,0
0.037983,1,0,0,0,0,0
0.037987,1,0,0,0,1,1
0.037988,1,0,0,0,0,0
0.037994,1,0,0,1,1,1
0.038086,1,0,0,1,1,0
0.038212,1,0,0,1,0,1
0.038316,1,0,0,1,0,0
0.038413,1,0,0,0,1,1
0.038536,1,0,0,0,1,0
0.038635,1,0,0,0,0,1
0.038745,1,0,0,0,0,0
0.038848,0,0,0,0,0,0
0.038849,1,0,0,0,0,0
0.038851,0,0,0,0,0,0
0.038852,1,0,0,0,0,0
0.038866,0,0,0,0,0,0
0.038871,1,0,0,0,0,0
0.038878,0,0,0,0,0,0
0.038886,1,0,0,0,0,0
0.03889,0,0,0,0,0,0
0.038899,1,0,0,0,0,0
0.038901,0,0,0,0,0,0
0.038943,0,0,0,0,0,1
0.038945,0,0,0,0,0,0
0.038956,0,1,1,1,1,1
0.038958,0,0,0,0,0,0
0.038969,0,0,1,0,1,1
0.03897,0,1,1,1,1,1
0.038972,0,0,0,0,0,0
0.038979,0,1,1,1,1,1
0.038985,0,1,1,1,1,0
0.039059,0,1,1,1,0,1
0.039162,0,1,1,1,0,0
0.03928,0,1,1,0,1,1
0.039386,0,1,1,0,1,0
0.039498,0,1,1,0,0,1
0.039617,0,1,1,0,0,0
0.039697,0,1,0,1,1,1
0.039813,0,1,0,1,1,0
0.039952,0,1,0,1,0,1
0.040054,0,1,0,1,0,0
0.040183,0,1,0,0,1,1
0.040296,0,1,0,0,1,0
0.040413,0,1,0,0,0,1
0.040541,0,1,0,0,0,0
0.040672,0,0,0,0,0,0
0.040673,0,1,0,0,0,0
0.040677,0,0,0,0,0,0
0.040678,0,1,0,0,0,0
0.040681,0,0,1,1,1,1
0.040805,0,0,1,1,1,0
0.040953,0,0,1,1,0,1
0.041099,0,0,1,1,0,0
0.04128,0,0,1,0,1,1
0.041428,0,0,1,0,1,0
0.041633,0,0,1,0,0,1
0.041846,0,0,1,0,0,0
0.042092,0,0,0,1,1,1
0.042409,0,0,0,1,1,0
0.042765,0,0,0,1,0,1
0.043255,0,0,0,1,0,0
0.044263,0,0,0,0,0,0
0.044266,0,0,0,0,1,1
0.044818,0,0,0,0,0,0
0.044819,0,0,0,1,0,0
0.04482,0,0,0,0,0,0
0.044821,0,0,0,1,0,0
0.045261,0,0,0,1,0,1
0.04542,0,0,0,1,1,0
0.045556,0,0,0,1,1,1
0.04572,0,0,1,0,0,0
0.04588,0,0,1,0,0,1
0.046019,0,0,1,0,1,0
0.046175,0,0,1,0,1,1
0.046297,0,0,1,1,0,0
0.046453,0,0,1,1,0,1
0.046579,0,0,1,1,1,0
0.046716,0,0,1,1,1,1
0.046847,0,1,0,0,0,0
0.046971,0,1,0,0,0,1
0.047104,0,1,0,0,1,0
0.047212,0,1,0,0,1,1
0.047335,0,1,0,1,0,0
0.047453,0,1,0,1,0,1
0.047555,0,1,0,1,1,0
0.047691,0,1,0,1,1,1
0.047811,0,1,1,0,0,0
0.047887,0,1,1,0,0,1
0.048008,0,1,1,0,1,0
0.048118,0,1,1,0,1,1
0.048221,0,1,1,1,0,0
0.048338,0,1,1,1,0,1
0.048442,0,1,1,1,1,0
0.048545,0,1,1,1,1,1
0.048655,1,0,0,0,0,0
0.048765,1,0,0,0,0,1
0.04886,1,0,0,0,1,0
0.048962,1,0,0,0,1,1
0.049082,1,0,0,1,0,0
0.049181,1,0,0,1,0,1
0.049291,1,0,0,1,1,0
0.049411,1,0,0,1,1,1
0.049516,1,0,1,0,0,0
0.049617,1,0,1,0,0,1
0.04973,1,0,1,0,1,0
0.049841,1,0,1,0,1,1
0.04996,1,0,1,1,0,0
0.050079,1,0,1,1,0,1
0.050182,1,0,1,1,1,0
0.050296,1,0,1,1,1,1
0.05041,1,1,0,0,0,0
0.050527,1,1,0,0,0,1
0.050649,1,1,0,0,1,0
0.050806,1,1,0,0,1,1
0.050912,1,1,0,1,0,0
0.05105,1,1,0,1,0,1
0.051209,1,1,0,1,1,0
0.051335,1,1,0,1,1,1
0.051504,1,1,0,0,0,0
0.051505,1,1,1,0,0,0
0.051645,1,1,1,0,0,1
0.051791,1,1,1,0,1,0
0.052005,1,1,1,0,1,1
0.052202,1,1,1,1,0,0
0.052397,1,1,1,1,0,1
0.052748,1,1,1,1,1,0
0.053106,1,1,1,1,1,1
0.054385,1,1,1,1,1,0
0.054732,1,1,1,1,0,0
0.054733,1,1,1,1,0,1
0.055089,1,1,1,1,0,0
0.055293,1,1,1,0,0,0
0.055294,1,1,1,0,1,1
0.055482,1,1,1,0,1,0
0.055701,1,1,1,0,0,1
0.055846,1,1,1,0,0,0
0.055987,1,1,0,0,0,0
0.055988,1,1,1,0,0,0
0.055994,1,1,0,0,0,0
0.055995,1,1,1,0,0,0
0.055996,1,1,0,0,0,0
0.055997,1,1,1,0,0,0
0.055998,1,1,0,0,0,0
0.055999,1,1,1,0,0,0
0.056003,1,1,0,0,0,0
0.056007,1,1,1,0,0,0
0.056008,1,1,0,0,0,0
0.056009,1,1,1,0,0,0
0.05601,1,1,0,0,0,0
0.056017,1,1,0,0,1,1
0.056018,1,1,0,0,0,0
0.056022,1,1,0,0,0,1
0.056023,1,1,0,0,0,0
0.056037,1,1,0,0,1,1
0.056038,1,1,0,0,0,0
0.056045,1,1,0,0,1,1
0.056046,1,1,0,0,0,0
0.056049,1,1,0,0,1,1
0.05605,1,1,0,0,0,0
0.056051,1,1,0,1,1,1
0.056158,1,1,0,1,1,0
0.056282,1,1,0,1,0,1
0.05644,1,1,0,1,0,0
0.056581,1,1,0,0,1,1
0.056695,1,1,0,0,1,0
0.056843,1,1,0,0,0,1
0.056967,1,1,0,0,0,0
0.057092,1,0,0,0,0,0
0.057093,1,1,0,0,0,0
0.05712,1,0,0,0,0,0
0.057121,1,1,0,0,0,0
0.057122,1,0,0,0,0,0
0.057124,1,1,0,0,0,0
0.057125,1,0,0,0,0,0
0.057127,1,1,0,0,0,0
0.057128,1,0,0,0,0,0
0.05713,1,1,0,0,0,0
0.057131,1,0,0,0,0,0
0.057134,1,1,0,0,0,0
0.057135,1,0,0,0,0,0
0.05717,1,0,0,0,1,1
0.057171,1,0,0,0,0,0
0.05718,1,0,0,0,1,1
0.057181,1,0,0,0,0,0
0.057185,1,0,0,1,1,1
0.057186,1,0,0,0,0,0
0.05719,1,0,1,1,1,1
0.057209,1,0,1,1,1,0
0.057316,1,0,1,1,0,1
0.057419,1,0,1,1,0,0
0.057541,1,0,1,0,1,1
0.057653,1,0,1,0,1,0
0.05777,1,0,1,0,0,1
0.057878,1,0,1,0,0,0
0.057983,1,0,0,0,0,0
0.057991,1,0,0,0,0,1
0.057992,1,0,1,0,0,0
0.057993,1,0,0,1,1,1
0.057994,1,0,0,0,0,0
0.057995,1,0,0,1,1,1
0.058086,1,0,0,1,1,0
0.058212,1,0,0,1,0,1
0.058317,1,0,0,1,0,0
0.058413,1,0,0,0,1,1
0.058537,1,0,0,0,1,0
0.058635,1,0,0,0,0,1
0.058745,1,0,0,0,0,0
0.058853,0,0,1,1,1,1
0.058854,1,0,0,0,0,0
0.058863,0,0,0,0,0,0
0.058865,1,0,0,0,0,0
0.058866,0,0,0,0,0,0
0.058868,1,0,0,0,0,0
0.058876,0,0,0,0,0,0
0.058884,1,0,0,0,0,0
0.058888,0,0,0,0,0,0
0.058898,1,0,0,0,0,0
0.058899,0,0,0,0,0,0
0.058942,0,0,1,0,1,1
0.058943,0,0,0,0,0,0
0.058954,0,0,0,0,0,1
0.058955,0,1,1,1,1,1
0.058956,0,0,0,0,0,0
0.058967,0,0,0,0,0,1
0.058968,0,1,1,1,1,1
0.05897,0,0,0,0,0,0
0.058979,0,1,1,1,1,1
0.058989,0,1,1,1,1,0
0.059059,0,1,1,1,0,1
0.059162,0,1,1,1,0,0
0.05928,0,1,1,0,0,0
0.059281,0,1,1,0,1,1
0.059386,0,1,1,0,1,0
0.059498,0,1,1,0,0,1
0.059618,0,1,1,0,0,0
0.059696,0,1,0,0,0,0
0.059697,0,1,0,1,1,1
0.059814,0,1,0,1,1,0
0.059952,0,1,0,1,0,1
0.060054,0,1,0,1,0,0
0.060182,0,1,0,0,1,1
0.060295,0,1,0,0,1,0
0.060412,0,1,0,0,0,1
0.060541,0,1,0,0,0,0
0.060678,0,0,1,1,1,1
0.060804,0,0,1,1,1,0
0.060952,0,0,1,1,0,1
0.0611,0,0,1,1,0,0
0.06128,0,0,1,0,1,1
0.061427,0,0,1,0,1,0
0.061633,0,0,1,0,0,1
0.061847,0,0,1,0,0,0
0.062088,0,0,0,0,0,0
0.062089,0,0,0,1,1,1
0.062408,0,0,0,1,1,0
0.062764,0,0,0,1,0,1
0.063255,0,0,0,1,0,0
0.064251,0,0,0,0,0,0
0.064254,0,0,0,0,1,1
0.064831,0,0,0,1,0,0
0.064833,0,0,0,0,0,0
0.064834,0,0,0,1,0,0
0.065259,0,0,0,1,0,1
0.06542,0,0,0,1,1,0
0.065557,0,0,0,1,1,1
0.065721,0,0,1,0,0,0
0.06588,0,0,1,0,0,1
0.066019,0,0,1,0,1,0
0.066174,0,0,1,0,1,1
0.066297,0,0,1,1,0,0
0.066453,0,0,1,1,0,1
0.066579,0,0,1,1,1,0
0.066716,0,0,1,1,1,1
0.066846,0,1,0,0,0,0
0.066972,0,1,0,0,0,1
0.067103,0,1,0,0,0,0
0.067104,0,1,0,0,1,0
0.067211,0,1,0,0,1,1
0.067336,0,1,0,1,0,0
0.067453,0,1,0,1,0,1
0.067555,0,1,0,1,1,0
0.067692,0,1,0,1,1,1
0.067812,0,1,1,0,0,0
0.067887,0,1,1,0,0,1
0.068009,0,1,1,0,1,0
0.068118,0,1,1,0,1,1
0.06822,0,1,1,1,0,0
0.068337,0,1,1,1,0,1
0.068442,0,1,1,1,1,0
0.068545,0,1,1,1,1,1
0.068655,1,0,0,0,0,0
0.068764,1,0,0,0,0,1
0.06886,1,0,0,0,1,0
0.068962,1,0,0,0,1,1
0.069082,1,0,0,1,0,0
0.069182,1,0,0,1,0,1
0.069291,1,0,0,1,1,0
0.06941,1,0,0,1,1,1
0.069516,1,0,1,0,0,0
0.069617,1,0,1,0,0,1
0.069729,1,0,1,0,0,0
0.06973,1,0,1,0,1,0
0.06984,1,0,1,0,1,1
0.069959,1,0,1,1,0,0
0.070078,1,0,1,1,0,1
0.070181,1,0,1,1,1,0
0.070297,1,0,1,1,1,1
0.07041,1,1,0,0,0,0
0.070525,1,1,0,0,0,1
0.070648,1,1,0,0,1,0
0.070805,1,1,0,0,1,1
0.070911,1,1,0,1,0,0
0.071049,1,1,0,1,0,1
0.071207,1,1,0,1,1,0
0.071334,1,1,0,1,1,1
0.071504,1,1,1,0,0,0
0.071644,1,1,1,0,0,1
0.071789,1,1,1,0,1,0
0.072004,1,1,1,0,1,1
0.072198,1,1,1,1,0,0
0.072393,1,1,1,1,0,1
0.072748,1,1,1,1,1,0
0.0731,1,1,1,1,1,1
0.074384,1,1,1,1,1,0
0.074386,1,1,1,1,1,1
0.074387,1,1,1,1,1,0
0.074734,1,1,1,1,0,0
0.074736,1,1,1,1,0,1
0.075091,1,1,1,1,0,0
0.075296,1,1,1,0,1,1
0.075483,1,1,1,0,1,0
0.075701,1,1,1,0,0,1
0.075846,1,1,1,0,0,0
0.075984,1,1,0,0,0,0
0.075985,1,1,1,0,0,0
0.075996,1,1,0,0,0,0
0.075997,1,1,1,0,0,0
0.075998,1,1,0,0,0,0
0.075999,1,1,1,0,0,0
0.076002,1,1,0,0,0,0
0.076003,1,1,1,0,0,0
0.076004,1,1,0,0,0,0
0.076005,1,1,1,0,0,0
0.076006,1,1,0,0,0,0
0.076009,1,1,1,0,0,0
0.07601,1,1,0,0,0,0
0.076011,1,1,1,0,0,0
0.076012,1,1,0,0,0,0
0.076027,1,1,0,0,1,1
0.076028,1,1,0,0,0,0
0.07603,1,1,0,0,0,1
0.076031,1,1,0,0,0,0
0.076036,1,1,0,0,1,1
0.076037,1,1,0,0,0,0
0.076041,1,1,0,0,1,1
0.076042,1,1,0,1,1,1
0.076158,1,1,0,1,1,0
0.076282,1,1,0,1,0,1
0.076439,1,1,0,1,0,0
0.076582,1,1,0,0,0,0
0.076583,1,1,0,0,1,1
0.076695,1,1,0,0,1,0
0.076842,1,1,0,0,0,1
0.076967,1,1,0,0,0,0
0.077113,1,0,0,0,0,0
0.077114,1,1,0,0,0,0
0.077121,1,0,0,0,0,0
0.077122,1,1,0,0,0,0
0.077124,1,0,0,0,0,0
0.077125,1,1,0,0,0,0
0.077127,1,0,0,0,0,0
0.077129,1,1,0,0,0,0
0.07713,1,0,0,0,0,0
0.077132,1,1,0,0,0,0
0.077133,1,0,0,0,0,0
0.077172,1,0,0,0,1,1
0.077173,1,0,0,0,0,0
0.077177,1,0,0,0,1,1
0.077178,1,0,0,0,0,0
0.077182,1,0,0,0,0,1
0.077183,1,0,0,0,0,0
0.077187,1,0,0,0,1,1
0.077188,1,0,0,0,0,0
0.077193,1,0,1,1,1,1
0.077212,1,0,1,1,1,0
0.077315,1,0,1,1,0,1
0.077419,1,0,1,1,0,0
0.077541,1,0,1,0,1,1
0.077653,1,0,1,0,1,0
0.07777,1,0,1,0,0,1
0.077878,1,0,1,0,0,0
0.07798,1,0,0,0,0,0
0.077988,1,0,0,0,0,1
0.077989,1,0,0,0,1,1
0.07799,1,0,0,0,0,0
0.077991,1,0,1,0,0,0
0.077992,1,0,0,0,0,0
0.077993,1,0,0,1,1,1
0.078085,1,0,0,1,1,0
0.078212,1,0,0,1,0,1
0.078316,1,0,0,1,0,0
0.078413,1,0,0,0,1,1
0.078536,1,0,0,0,1,0
0.078635,1,0,0,0,0,1
0.078745,1,0,0,0,0,0
0.078854,0,0,0,0,0,0
0.078855,1,0,0,0,0,0
0.078873,0,0,0,0,0,0
0.078881,1,0,0,0,0,0
0.078885,0,0,0,0,0,0
0.078893,1,0,0,0,0,0
0.078896,0,0,0,0,0,0
0.078949,0,0,0,0,0,1
0.07895,0,0,0,0,0,0
0.078962,0,0,0,0,1,1
0.078963,0,1,1,1,1,1
0.078965,0,0,0,0,0,0
0.078974,0,1,1,1,1,1
0.078976,0,0,0,0,0,1
0.078977,0,0,0,0,0,0
0.078979,0,1,1,1,1,1
0.078987,0,1,1,1,1,0
0.079058,0,1,1,1,0,1
0.079162,0,1,1,1,0,0
0.07928,0,1,1,0,1,1
0.079386,0,1,1,0,1,0
0.079497,0,1,1,0,0,1
0.079617,0,1,1,0,0,0
0.079695,0,1,0,0,1,1
0.079696,0,1,0,1,1,1
0.079813,0,1,0,1,1,0
0.079952,0,1,0,1,0,1
0.080054,0,1,0,1,0,0
0.080182,0,1,0,0,1,1
0.080295,0,1,0,0,1,0
0.080412,0,1,0,0,0,1
0.080541,0,1,0,0,0,0
0.080674,0,0,1,1,1,1
0.080803,0,0,1,1,1,0
0.080952,0,0,1,1,0,1
0.081099,0,0,1,1,0,0
0.08128,0,0,1,0,1,1
0.081427,0,0,1,0,1,0
0.081633,0,0,1,0,0,1
0.081846,0,0,1,0,0,0
0.082091,0,0,0,0,0,0
0.082092,0,0,0,1,1,1
0.082407,0,0,0,1,1,0
0.082766,0,0,0,1,0,1
0.083257,0,0,0,1,0,0
0.084276,0,0,0,0,0,0
0.084277,0,0,0,1,0,0
0.084278,0,0,0,0,1,1
0.084279,0,0,0,0,0,0
0.08428,0,0,0,0,1,1
0.084807,0,0,0,0,0,0
0.084808,0,0,0,1,0,0
0.085258,0,0,0,1,0,1
0.085419,0,0,0,1,1,0
0.085555,0,0,0,1,1,1
0.085721,0,0,1,0,0,0
0.085879,0,0,1,0,0,1
0.086019,0,0,1,0,1,0
0.086175,0,0,1,0,1,1
0.086297,0,0,1,1,0,0
0.086452,0,0,1,1,0,1
0.086579,0,0,1,1,1,0
0.086716,0,0,1,1,1,1
0.086846,0,1,0,0,0,0
0.086971,0,1,0,0,0,1
0.087103,0,1,0,0,1,0
0.08721,0,1,0,0,1,1
0.087335,0,1,0,1,0,0
0.087453,0,1,0,1,0,1
0.087555,0,1,0,1,1,0
0.087691,0,1,0,1,1,1
0.087811,0,1,1,0,0,0
0.087888,0,1,1,0,0,1
0.088008,0,1,1,0,1,0
0.088117,0,1,1,0,1,1
0.088219,0,1,1,0,0,0
0.08822,0,1,1,1,0,0
0.088337,0,1,1,1,0,1
0.088442,0,1,1,1,1,0
0.088544,0,1,1,1,1,1
0.088654,1,0,0,0,0,0
0.088763,1,0,0,0,0,1
0.08886,1,0,0,0,1,0
0.088961,1,0,0,0,1,1
0.089082,1,0,0,1,0,0
0.089181,1,0,0,1,0,1
0.08929,1,0,0,1,0,0
0.089291,1,0,0,1,1,0
0.08941,1,0,0,1,1,1
0.089515,1,0,1,0,0,0
0.089615,1,0,1,0,0,1
0.089728,1,0,1,0,1,0
0.089839,1,0,1,0,1,1
0.089958,1,0,1,1,0,0
0.090078,1,0,1,1,0,1
0.09018,1,0,1,1,1,0
0.090295,1,0,1,1,1,1
0.090409,1,1,0,0,0,0
0.090525,1,1,0,0,0,1
0.090647,1,1,0,0,0,0
0.090648,1,1,0,0,1,0
0.090804,1,1,0,0,1,1
0.090909,1,1,0,1,0,0
0.091048,1,1,0,1,0,1
0.091207,1,1,0,1,1,0
0.091333,1,1,0,1,1,1
0.091503,1,1,1,0,0,0
0.091643,1,1,1,0,0,1
0.091787,1,1,1,0,1,0
0.092003,1,1,1,0,1,1
0.092196,1,1,1,1,0,0
0.09239,1,1,1,1,0,1
0.092747,1,1,1,1,1,0
0.093098,1,1,1,1,1,1
0.094382,1,1,1,1,1,0
0.094383,1,1,1,1,1,1
0.094387,1,1,1,1,1,0
0.094731,1,1,1,1,0,0
0.094733,1,1,1,1,0,1
0.095089,1,1,1,1,0,0
0.095293,1,1,1,0,1,1
0.095483,1,1,1,0,1,0
0.0957,1,1,1,0,0,1
0.095846,1,1,1,0,0,0
0.096,1,1,0,0,0,0
0.096001,1,1,1,0,0,0
0.096002,1,1,0,0,0,0
0.096008,1,1,1,0,0,0
0.096009,1,1,0,0,0,1
0.09601,1,1,0,0,0,0
0.096036,1,1,0,0,1,1
0.096037,1,1,0,0,0,0
0.096043,1,1,0,0,1,1
0.096044,1,1,0,1,1,1
0.096156,1,1,0,1,1,0
0.096281,1,1,0,1,0,1
0.096439,1,1,0,1,0,0
0.096579,1,1,0,0,1,1
0.096694,1,1,0,0,1,0
0.09684,1,1,0,0,0,0
0.096841,1,1,0,0,0,1
0.096966,1,1,0,0,0,0
0.09709,1,0,0,0,0,0
0.097091,1,1,0,0,0,0
0.097114,1,0,0,0,0,0
0.097115,1,1,0,0,0,0
0.097122,1,0,0,0,0,0
0.097123,1,1,0,0,0,0
0.097125,1,0,0,0,0,0
0.097127,1,1,0,0,0,0
0.097128,1,0,0,0,0,0
0.09713,1,1,0,0,0,0
0.097131,1,0,0,0,0,0
0.097134,1,1,0,0,0,0
0.097135,1,0,0,0,0,0
0.097166,1,0,0,0,0,1
0.097167,1,0,0,0,0,0
0.097175,1,0,0,0,0,1
0.097176,1,0,0,0,0,0
0.097186,1,0,0,0,1,1
0.097187,1,0,0,0,0,0
0.097192,1,0,1,1,1,1
0.09721,1,0,1,1,1,0
0.097314,1,0,1,1,0,1
0.097418,1,0,1,1,0,0
0.09754,1,0,1,0,1,1
0.097652,1,0,1,0,1,0
0.097769,1,0,1,0,0,1
0.097877,1,0,1,0,0,0
0.09798,1,0,0,0,0,0
0.097986,1,0,0,0,0,1
0.097987,1,0,0,0,1,1
0.097988,1,0,0,0,0,0
0.097992,1,0,0,0,1,1
0.097993,1,0,1,0,0,0
0.097994,1,0,0,1,1,1
0.098084,1,0,0,1,1,0
0.098211,1,0,0,1,0,1
0.098315,1,0,0,1,0,0
0.098412,1,0,0,0,1,1
0.098535,1,0,0,0,1,0
0.098634,1,0,0,0,0,1
0.098744,1,0,0,0,0,0
0.098863,0,0,0,0,0,0
0.098865,1,0,0,0,0,0
0.098874,0,0,0,0,0,0
0.098881,1,0,0,0,0,0
0.098886,0,0,0,0,0,0
0.098895,1,0,0,0,0,0
0.098897,0,0,0,0,0,0
0.098951,0,1,1,1,1,1
0.098952,0,0,0,0,0,0
0.098963,0,0,1,0,1,1
0.098964,0,1,1,1,1,1
0.098966,0,0,0,0,0,0
0.098975,0,1,1,1,1,1
0.098976,0,0,0,0,0,0
0.098982,0,1,1,1,1,1
0.098984,0,0,0,0,0,0
0.098985,0,1,1,1,1,1
0.098991,0,1,1,1,1,0
0.099058,0,1,1,1,0,1
0.099162,0,1,1,1,0,0
0.099279,0,1,1,0,1,1
0.099385,0,1,1,0,1,0
0.099497,0,1,1,0,0,1
0.099617,0,1,1,0,0,0
0.099695,0,1,0,1,1,1
0.099812,0,1,0,1,1,0
0.099952,0,1,0,1,0,1
0.100053,0,1,0,1,0,0
0.100182,0,1,0,0,1,1
0.100294,0,1,0,0,1,0
0.100412,0,1,0,0,0,1
0.100541,0,1,0,0,0,0
0.100671,0,0,0,1,1,1
0.100672,0,1,0,0,0,0
0.100673,0,0,0,0,1,1
0.100674,0,1,0,0,0,0
0.100675,0,0,1,1,1,1
0.100676,0,1,0,0,0,0
0.100681,0,0,1,1,1,1
0.100803,0,0,1,1,1,0
0.100952,0,0,1,1,0,1
0.101099,0,0,1,1,0,0
0.101279,0,0,1,0,1,1
0.101427,0,0,1,0,1,0
0.101633,0,0,1,0,0,1
0.101847,0,0,1,0,0,0
0.102089,0,0,0,0,1,1
0.10209,0,0,0,1,1,1
0.102408,0,0,0,1,1,0
0.102763,0,0,0,1,0,1
0.10325,0,0,0,1,0,0
0.104257,0,0,0,0,0,0
0.10426,0,0,0,0,1,1
0.104817,0,0,0,0,0,0
0.104819,0,0,0,1,0,0
0.105257,0,0,0,1,0,1
0.10542,0,0,0,1,1,0
0.105556,0,0,0,1,1,1
0.105721,0,0,1,0,0,0
0.105881,0,0,1,0,0,1
0.106019,0,0,1,0,1,0
0.106175,0,0,1,0,1,1
0.106297,0,0,1,1,0,0
0.106452,0,0,1,1,0,1
0.106579,0,0,1,1,1,0
0.106716,0,0,1,1,1,1
0.106846,0,1,0,0,0,0
0.10697,0,1,0,0,0,1
0.107103,0,1,0,0,1,0
0.107211,0,1,0,0,1,1
0.107334,0,1,0,1,0,0
0.107452,0,1,0,1,0,1
0.107554,0,1,0,1,1,0
0.107691,0,1,0,1,1,1
0.107811,0,1,1,0,0,0
0.107886,0,1,1,0,0,1
0.108008,0,1,1,0,1,0
0.108117,0,1,1,0,1,1
0.108219,0,1,1,1,0,0
0.108337,0,1,1,1,0,1
0.10844,0,1,1,1,1,0
0.108543,0,1,1,1,1,1
0.108654,1,0,0,0,0,0
0.108763,1,0,0,0,0,1
0.108859,1,0,0,0,1,0
0.108961,1,0,0,0,1,1
0.109081,1,0,0,1,0,0
0.10918,1,0,0,1,0,1
0.10929,1,0,0,1,1,0
0.109409,1,0,0,1,1,1
0.109515,1,0,1,0,0,0
0.109615,1,0,1,0,0,1
0.109728,1,0,1,0,1,0
0.109839,1,0,1,0,1,1
0.109958,1,0,1,1,0,0
0.110078,1,0,1,1,0,1
0.11018,1,0,1,1,1,0
0.110296,1,0,1,1,1,1
0.110409,1,1,0,0,0,0
0.110525,1,1,0,0,0,1
0.110647,1,1,0,0,1,0
0.110803,1,1,0,0,1,1
0.110908,1,1,0,1,0,0
0.111048,1,1,0,1,0,1
0.111206,1,1,0,1,1,0
0.111334,1,1,0,1,1,1
0.111503,1,1,1,0,0,0
0.111643,1,1,1,0,0,1
0.11179,1,1,1,0,1,0
0.112004,1,1,1,0,1,1
0.112198,1,1,1,1,0,0
0.112393,1,1,1,1,0,1
0.112745,1,1,1,1,1,0
0.113104,1,1,1,1,1,1
0.114387,1,1,1,1,1,0
0.114732,1,1,1,1,0,0
0.114734,1,1,1,1,1,0
0.114735,1,1,1,1,0,0
0.114737,1,1,1,1,0,1
0.115089,1,1,1,1,0,0
0.115293,1,1,1,0,1,1
0.115481,1,1,1,0,1,0
0.115698,1,1,1,0,0,0
0.115699,1,1,1,0,0,1
0.115844,1,1,1,0,0,0
0.115989,1,1,0,0,0,0
0.11599,1,1,1,0,0,0
0.115994,1,1,0,0,0,0
0.115995,1,1,1,0,0,0
0.115996,1,1,0,0,0,0
0.115997,1,1,1,0,0,0
0.115998,1,1,0,0,0,0
0.115999,1,1,1,0,0,0
0.116,1,1,0,0,0,0
0.116001,1,1,1,0,0,0
0.116002,1,1,0,0,0,0
0.116003,1,1,1,0,0,0
0.116004,1,1,0,0,0,0
0.116005,1,1,1,0,0,0
0.116006,1,1,0,0,0,0
0.11601,1,1,1,0,0,0
0.116011,1,1,0,0,0,0
0.116021,1,1,0,0,0,1
0.116022,1,1,0,0,0,0
0.116033,1,1,0,0,1,1
0.116034,1,1,0,0,0,0
0.116036,1,1,0,0,0,1
0.116037,1,1,0,0,0,0
0.116041,1,1,0,1,1,1
0.116156,1,1,0,1,1,0
0.116281,1,1,0,1,0,1
0.116438,1,1,0,1,0,0
0.116581,1,1,0,0,1,1
0.116693,1,1,0,0,1,0
0.116841,1,1,0,0,0,1
0.116966,1,1,0,0,0,0
0.117092,1,0,0,0,0,0
0.117093,1,1,0,0,0,0
0.117118,1,0,0,0,0,0
0.117119,1,1,0,0,0,0
0.117121,1,0,0,0,0,0
0.117122,1,1,0,0,0,0
0.117124,1,0,0,0,0,0
0.117125,1,1,0,0,0,0
0.117126,1,0,0,0,0,0
0.117129,1,1,0,0,0,0
0.11713,1,0,0,0,0,0
0.117132,1,1,0,0,0,0
0.117133,1,0,0,0,0,0
0.117139,1,1,0,0,0,0
0.11714,1,0,0,0,0,0
0.117152,1,0,0,0,0,1
0.117153,1,0,0,0,0,0
0.117156,1,0,0,0,0,1
0.117157,1,0,0,0,0,0
0.11716,1,0,0,0,0,1
0.117161,1,0,0,0,0,0
0.117169,1,0,0,0,0,1
0.11717,1,0,0,0,0,0
0.117184,1,0,0,1,1,1
0.117185,1,0,0,0,0,0
0.117189,1,0,1,1,1,1
0.117208,1,0,1,1,1,0
0.117314,1,0,1,1,0,1
0.117418,1,0,1,1,0,0
0.117539,1,0,1,0,0,0
0.11754,1,0,1,0,1,1
0.117653,1,0,1,0,1,0
0.117769,1,0,1,0,0,1
0.117877,1,0,1,0,0,0
0.117979,1,0,0,0,0,0
0.117988,1,0,0,0,1,1
0.117989,1,0,0,0,0,0
0.11799,1,0,0,1,1,1
0.117991,1,0,0,0,0,1
0.117992,1,0,0,0,0,0
0.117993,1,0,0,1,1,1
0.117994,1,0,0,0,0,0
0.117995,1,0,0,0,0,1
0.117996,1,0,0,0,0,0
0.117997,1,0,0,1,1,1
0.118084,1,0,0,1,1,0
0.118211,1,0,0,1,0,1
0.118315,1,0,0,1,0,0
0.118412,1,0,0,0,1,1
0.118535,1,0,0,0,1,0
0.118635,1,0,0,0,0,1
0.118744,1,0,0,0,0,0
0.118867,0,0,0,0,0,0
0.118873,1,0,0,0,0,0
0.118879,0,0,0,0,0,0
0.118888,1,0,0,0,0,0
0.118891,0,0,0,0,0,0
0.1189,1,0,0,0,0,0
0.118901,0,0,0,0,0,0
0.118943,0,0,0,0,1,1
0.118944,0,0,0,0,0,1
0.118945,0,0,0,0,0,0
0.118956,0,1,1,1,1,1
0.118957,0,0,1,1,1,1
0.118958,0,0,0,0,0,1
0.118959,0,0,0,0,0,0
0.118969,0,0,1,0,1,1
0.11897,0,1,1,1,1,1
0.118971,0,1,1,0,1,1
0.118972,0,0,0,0,0,0
0.118979,0,1,1,1,1,1
0.11898,1,0,0,0,0,0
0.118981,0,1,1,1,1,1
0.118987,0,1,1,1,1,0
0.119058,0,1,1,1,0,1
0.119161,0,1,1,1,0,0
0.119279,0,1,1,0,1,1
0.119385,0,1,1,0,1,0
0.119497,0,1,1,0,0,1
0.119617,0,1,1,0,0,0
0.119695,0,1,0,1,1,1
0.119813,0,1,0,1,1,0
0.119951,0,1,0,1,0,1
0.120053,0,1,0,1,0,0
0.120182,0,1,0,0,1,1
0.120295,0,1,0,0,1,0
0.120412,0,1,0,0,0,1
0.120541,0,1,0,0,0,0
0.120671,0,0,1,1,1,1
0.120672,0,1,0,0,0,0
0.120673,0,0,0,0,0,0
0.120674,0,1,0,0,0,0
0.120678,0,0,1,1,1,1
0.120804,0,0,1,1,1,0
0.120951,0,0,1,1,0,0
0.120952,0,0,1,1,0,1
0.121098,0,0,1,1,0,0
0.121279,0,0,1,0,1,1
0.121427,0,0,1,0,1,0
0.121632,0,0,1,0,0,1
0.121846,0,0,1,0,0,0
0.12209,0,0,0,0,0,0
0.122091,0,0,0,1,1,1
0.122409,0,0,0,1,1,0
0.122765,0,0,0,1,0,0
0.122766,0,0,0,1,0,1
0.123256,0,0,0,1,0,0
0.124265,0,0,0,0,0,0
0.124268,0,0,0,0,1,1
0.124815,0,0,0,0,0,0
0.124817,0,0,0,1,0,0
0.125261,0,0,0,1,0,1
0.125418,0,0,0,1,1,0
0.125555,0,0,0,1,1,1
0.12572,0,0,1,0,0,0
0.125879,0,0,1,0,0,1
0.126018,0,0,1,0,1,0
0.126174,0,0,1,0,1,1
0.126297,0,0,1,1,0,0
0.126452,0,0,1,1,0,1
0.126578,0,0,1,1,1,0
0.126716,0,0,1,1,1,1
0.126845,0,1,0,0,0,0
0.12697,0,1,0,0,0,1
0.127103,0,1,0,0,1,0
0.127211,0,1,0,0,1,1
0.127335,0,1,0,1,0,0
0.127452,0,1,0,1,0,1
0.127554,0,1,0,1,1,0
0.127691,0,1,0,1,1,1
0.127811,0,1,1,0,0,0
0.127886,0,1,1,0,0,1
0.128008,0,1,1,0,1,0
0.128118,0,1,1,0,1,1
0.12822,0,1,1,1,0,0
0.128337,0,1,1,1,0,1
0.128442,0,1,1,1,1,0
0.128544,0,1,1,1,1,1
0.128654,1,0,0,0,0,0
0.128764,1,0,0,0,0,1
0.128859,1,0,0,0,1,0
0.128962,1,0,0,0,1,1
0.129081,1,0,0,1,0,0
0.12918,1,0,0,1,0,1
0.12929,1,0,0,1,1,0
0.12941,1,0,0,1,1,1
0.129515,1,0,1,0,0,0
0.129616,1,0,1,0,0,1
0.129729,1,0,1,0,1,0
0.12984,1,0,1,0,1,1
0.12996,1,0,1,1,0,0
0.130079,1,0,1,1,0,1
0.130181,1,0,1,1,1,0
0.130296,1,0,1,1,1,1
0.13041,1,1,0,0,0,0
0.130526,1,1,0,0,0,1
0.130648,1,1,0,0,1,0
0.130803,1,1,0,0,1,1
0.130911,1,1,0,1,0,0
0.131049,1,1,0,1,0,1
0.131208,1,1,0,1,1,0
0.131335,1,1,0,1,1,1
0.131504,1,1,1,0,0,0
0.131644,1,1,1,0,0,1
0.131789,1,1,1,0,1,0
0.132005,1,1,1,0,1,1
0.1322,1,1,1,1,0,0
0.132398,1,1,1,1,0,1
0.132752,1,1,1,1,1,0
0.133103,1,1,1,1,1,1
0.134372,1,1,1,1,1,0
0.134373,1,1,1,1,1,1
0.134379,1,1,1,1,1,0
0.134728,1,1,1,1,0,0
0.134729,1,1,1,1,1,0
0.13473,1,1,1,1,0,1
0.135088,1,1,1,1,0,0
0.135292,1,1,1,0,0,0
0.135293,1,1,1,0,1,1
0.13548,1,1,1,0,1,0
0.1357,1,1,1,0,0,1
0.135843,1,1,1,0,0,0
0.135995,1,1,0,0,0,0
0.135996,1,1,1,0,0,0
0.135997,1,1,0,0,0,0
0.135998,1,1,1,0,0,0
0.135999,1,1,0,0,0,0
0.136,1,1,1,0,0,0
0.136001,1,1,0,0,0,0
0.136007,1,1,1,0,0,0
0.136008,1,1,0,0,0,0
0.136018,1,1,0,0,0,1
0.136019,1,1,0,0,0,0
0.136026,1,1,0,0,1,1
0.136027,1,1,0,0,0,0
0.136038,1,1,0,0,1,1
0.136039,1,1,0,0,0,0
0.136042,1,1,0,0,1,1
0.136043,1,1,0,0,0,0
0.136046,1,1,0,1,1,1
0.136155,1,1,0,1,1,0
0.13628,1,1,0,1,0,1
0.136438,1,1,0,1,0,0
0.136579,1,1,0,0,0,0
0.13658,1,1,0,0,0,1
0.136581,1,1,0,0,1,1
0.136693,1,1,0,0,1,0
0.136841,1,1,0,0,0,1
0.136966,1,1,0,0,0,0
0.13709,1,0,0,0,0,0
0.137091,1,1,0,0,0,0
0.137092,1,0,0,0,0,0
0.137093,1,1,0,0,0,0
0.137121,1,0,0,0,0,0
0.137122,1,1,0,0,0,0
0.137124,1,0,0,0,0,0
0.137126,1,1,0,0,0,0
0.137127,1,0,0,0,0,0
0.137129,1,1,0,0,0,0
0.13713,1,0,0,0,0,0
0.137136,1,1,0,0,0,0
0.137137,1,0,0,0,0,0
0.137174,1,0,0,1,1,1
0.137175,1,0,0,0,0,0
0.137179,1,0,0,1,1,1
0.13718,1,0,0,0,0,0
0.137185,1,0,0,0,1,1
0.137186,1,0,0,0,0,0
0.137191,1,0,0,1,1,1
0.137192,1,0,0,0,0,1
0.137193,1,0,0,0,0,0
0.137194,1,0,1,1,1,1
0.13721,1,0,1,1,1,0
0.137314,1,0,1,1,0,1
0.137417,1,0,1,1,0,0
0.13754,1,0,1,0,1,1
0.137652,1,0,1,0,1,0
0.13777,1,0,1,0,0,1
0.137877,1,0,1,0,0,0
0.13798,1,0,0,0,0,0
0.137988,1,0,0,0,1,1
0.137989,1,0,0,1,1,1
0.13799,1,0,0,0,0,0
0.137991,1,0,0,0,0,1
0.137992,1,0,0,0,0,0
0.137993,1,0,0,1,1,1
0.138085,1,0,0,1,1,0
0.138211,1,0,0,1,0,0
0.138212,1,0,0,1,0,1
0.138316,1,0,0,1,0,0
0.138413,1,0,0,0,1,1
0.138536,1,0,0,0,1,0
0.138634,1,0,0,0,0,1
0.138745,1,0,0,0,0,0
0.138851,0,0,0,0,0,0
0.138852,1,0,0,0,0,0
0.138873,0,0,0,0,0,0
0.138881,1,0,0,0,0,0
0.138885,0,0,0,0,0,0
0.138895,1,0,0,0,0,0
0.138897,0,0,0,0,0,0
0.138939,0,0,0,0,0,1
0.13894,0,0,0,0,0,0
0.138951,0,0,1,0,1,1
0.138952,0,0,0,0,0,1
0.138953,0,0,0,0,0,0
0.138963,0,0,0,0,0,1
0.138964,0,1,1,1,1,1
0.138966,0,0,0,0,0,0
0.138976,0,1,1,1,1,1
0.138978,0,0,0,0,0,0
0.138982,0,1,1,1,1,1
0.138989,0,1,1,1,1,0
0.139059,0,1,1,1,0,1
0.139162,0,1,1,1,0,0
0.13928,0,1,1,0,1,1
0.139386,0,1,1,0,1,0
0.139497,0,1,1,0,0,1
0.139617,0,1,1,0,0,0
0.139695,0,1,0,0,0,0
0.139696,0,1,0,1,1,1
0.139813,0,1,0,1,1,0
0.139952,0,1,0,1,0,1
0.140054,0,1,0,1,0,0
0.140183,0,1,0,0,1,1
0.140295,0,1,0,0,1,0
0.140413,0,1,0,0,0,1
0.140541,0,1,0,0,0,0
0.140676,0,0,1,1,1,1
0.140804,0,0,1,1,1,0
0.140952,0,0,1,1,0,1
0.141099,0,0,1,1,0,0
0.14128,0,0,1,0,1,1
0.141428,0,0,1,0,1,0
0.141633,0,0,1,0,0,1
0.141846,0,0,1,0,0,0
0.142088,0,0,0,0,1,1
0.142089,0,0,0,1,1,1
0.142409,0,0,0,1,1,0
0.142767,0,0,0,1,0,1
0.143256,0,0,0,1,0,0
0.14425,0,0,0,0,0,0
0.144253,0,0,0,0,1,1
0.144824,0,0,0,0,0,0
0.144825,0,0,0,1,0,0
0.14526,0,0,0,1,0,1
0.145418,0,0,0,1,1,0
0.145556,0,0,0,1,1,1
0.145719,0,0,0,0,0,0
0.14572,0,0,1,0,0,0
0.145879,0,0,1,0,0,1
0.146018,0,0,1,0,1,0
0.146174,0,0,1,0,1,1
0.146297,0,0,1,1,0,0
0.146452,0,0,1,1,0,1
0.146579,0,0,1,1,1,0
0.146716,0,0,1,1,1,1
0.146846,0,1,0,0,0,0
0.14697,0,1,0,0,0,1
0.147103,0,1,0,0,1,0
0.147211,0,1,0,0,1,1
0.147335,0,1,0,1,0,0
0.147452,0,1,0,1,0,1
0.147555,0,1,0,1,1,0
0.147691,0,1,0,1,1,1
0.147811,0,1,1,0,0,0
0.147887,0,1,1,0,0,1
0.148007,0,1,1,0,1,0
0.148117,0,1,1,0,1,1
0.14822,0,1,1,1,0,0
0.148338,0,1,1,1,0,1
0.148441,0,1,1,1,1,0
0.148544,0,1,1,1,1,1
0.148654,1,0,0,0,0,0
0.148764,1,0,0,0,0,1
0.148859,1,0,0,0,1,0
0.148961,1,0,0,0,1,1
0.149082,1,0,0,1,0,0
0.14918,1,0,0,1,0,1
0.149291,1,0,0,1,1,0
0.14941,1,0,0,1,1,1
0.149515,1,0,0,1,0,0
0.149516,1,0,1,0,0,0
0.149616,1,0,1,0,0,1
0.149729,1,0,1,0,1,0
0.149841,1,0,1,0,1,1
0.14996,1,0,1,1,0,0
0.150078,1,0,1,1,0,1
0.150181,1,0,1,1,1,0
0.150296,1,0,1,1,1,1
0.15041,1,1,0,0,0,0
0.150526,1,1,0,0,0,1
0.150649,1,1,0,0,1,0
0.150805,1,1,0,0,1,1
0.15091,1,1,0,1,0,0
0.151049,1,1,0,1,0,1
0.151208,1,1,0,1,1,0
0.151334,1,1,0,1,1,1
0.151504,1,1,1,0,0,0
0.151645,1,1,1,0,0,1
0.151789,1,1,1,0,0,0
0.15179,1,1,1,0,1,0
0.152006,1,1,1,0,1,1
0.1522,1,1,1,1,0,0
0.152395,1,1,1,1,0,1
0.152749,1,1,1,1,1,0
0.153105,1,1,1,1,1,1
0.154383,1,1,1,1,1,0
0.154732,1,1,1,1,0,0
0.154733,1,1,1,1,0,1
0.155088,1,1,1,1,0,0
0.155295,1,1,1,0,0,0
0.155297,1,1,1,0,1,1
0.155298,1,1,1,0,0,0
0.1553,1,1,1,1,0,0
0.155302,1,1,1,0,1,1
0.155303,1,1,1,1,0,0
0.155304,1,1,1,0,1,1
0.155483,1,1,1,0,1,0
0.155701,1,1,1,0,0,1
0.155845,1,1,1,0,0,0
0.155992,1,1,0,0,0,0
0.155993,1,1,1,0,0,0
0.155997,1,1,0,0,0,0
0.155998,1,1,1,0,0,0
0.155999,1,1,0,0,0,0
0.156,1,1,1,0,0,0
0.156001,1,1,0,0,0,0
0.156002,1,1,1,0,0,0
0.156003,1,1,0,0,0,0
0.156038,1,1,0,0,1,1
0.156039,1,1,0,0,0,0
0.156042,1,1,0,1,1,1
0.156157,1,1,0,1,1,0
0.15628,1,1,0,1,0,1
0.15644,1,1,0,1,0,0
0.156582,1,1,0,0,1,1
0.156694,1,1,0,0,1,0
0.156841,1,1,0,0,0,0
0.156842,1,1,0,0,0,1
0.156967,1,1,0,0,0,0
0.157091,1,0,0,0,0,0
0.157092,1,1,0,0,0,0
0.157118,1,0,0,0,0,0
0.157119,1,1,0,0,0,0
0.157121,1,0,0,0,0,0
0.157122,1,1,0,0,0,0
0.157124,1,0,0,0,0,0
0.157125,1,1,0,0,0,0
0.157126,1,0,0,0,0,0
0.157132,1,1,0,0,0,0
0.157133,1,0,0,0,0,0
0.157155,1,0,0,0,0,1
0.157156,1,0,0,0,0,0
0.157159,1,0,0,0,0,1
0.15716,1,0,0,0,0,0
0.157172,1,0,0,0,1,1
0.157173,1,0,0,0,0,0
0.157177,1,0,0,0,1,1
0.157178,1,0,0,0,0,0
0.157182,1,0,0,0,1,1
0.157183,1,0,0,0,0,0
0.157188,1,0,0,0,1,1
0.157189,1,0,0,0,0,0
0.157195,1,0,1,1,1,1
0.157212,1,0,1,1,1,0
0.157314,1,0,1,1,0,1
0.157418,1,0,1,1,0,0
0.15754,1,0,1,0,1,1
0.157653,1,0,1,0,1,0
0.15777,1,0,1,0,0,1
0.157878,1,0,1,0,0,0
0.15798,1,0,0,0,0,0
0.157987,1,0,0,0,0,1
0.157988,1,0,0,0,0,0
0.157994,1,0,1,0,0,0
0.157995,1,0,0,1,1,1
0.158085,1,0,0,1,1,0
0.158212,1,0,0,1,0,1
0.158317,1,0,0,1,0,0
0.158413,1,0,0,0,1,1
0.158536,1,0,0,0,1,0
0.158635,1,0,0,0,0,1
0.158745,1,0,0,0,0,0
0.158846,0,0,0,0,0,0
0.158847,1,0,0,0,0,0
0.15886,0,0,0,0,0,0
0.158861,1,0,0,0,0,0
0.158874,0,0,0,0,0,0
0.158881,1,0,0,0,0,0
0.158886,0,0,0,0,0,0
0.158895,1,0,0,0,0,0
0.158897,0,0,0,0,0,0
0.158953,0,0,1,0,1,1
0.158955,0,0,0,0,0,0
0.158966,0,1,1,1,1,1
0.158968,0,0,0,0,0,1
0.158969,0,0,0,0,0,0
0.158978,0,1,1,1,1,1
0.15898,1,0,0,0,0,0
0.158981,0,1,1,1,1,1
0.158987,0,1,1,1,1,0
0.159059,0,1,1,1,0,1
0.159162,0,1,1,1,0,0
0.15928,0,1,1,0,1,1
0.159386,0,1,1,0,1,0
0.159497,0,1,1,0,0,1
0.159617,0,1,1,0,0,0
0.159696,0,1,0,1,1,1
0.159813,0,1,0,1,1,0
0.159952,0,1,0,1,0,1
0.160053,0,1,0,1,0,0
0.160182,0,1,0,0,1,1
0.160295,0,1,0,0,1,0
0.160413,0,1,0,0,0,1
0.160541,0,1,0,0,0,0
0.160676,0,0,1,1,1,1
0.160803,0,0,1,1,1,0
0.160951,0,0,1,1,0,1
0.161099,0,0,1,1,0,0
0.161279,0,0,1,0,1,1
0.161427,0,0,1,0,1,0
0.161633,0,0,1,0,0,1
0.161845,0,0,1,0,0,0
0.16209,0,0,0,0,0,0
0.162091,0,0,0,1,1,1
0.162406,0,0,0,1,1,0
0.162766,0,0,0,1,0,1
0.163257,0,0,0,1,0,0
0.164257,0,0,0,0,0,0
0.164258,0,0,0,1,0,0
0.164259,0,0,0,0,0,1
0.16426,0,0,0,0,0,0
0.164261,0,0,0,0,1,1
0.164814,0,0,0,0,0,0
0.164816,0,0,0,1,0,0
0.165257,0,0,0,1,0,1
0.16542,0,0,0,1,1,0
0.165555,0,0,0,1,1,1
0.16572,0,0,1,0,0,0
0.165879,0,0,1,0,0,1
0.166019,0,0,1,0,1,0
0.166174,0,0,1,0,1,1
0.166296,0,0,1,1,0,0
0.166452,0,0,1,1,0,1
0.166579,0,0,1,1,1,0
0.166715,0,0,1,1,1,1
0.166846,0,1,0,0,0,0
0.166971,0,1,0,0,0,1
0.167102,0,1,0,0,1,0
0.167211,0,1,0,0,1,1
0.167335,0,1,0,1,0,0
0.167453,0,1,0,1,0,1
0.167554,0,1,0,1,0,0
0.167555,0,1,0,1,1,0
0.167691,0,1,0,1,1,1
0.167811,0,1,1,0,0,0
0.167887,0,1,1,0,0,1
0.168008,0,1,1,0,1,0
0.168117,0,1,1,0,1,1
0.16822,0,1,1,1,0,0
0.168338,0,1,1,1,0,1
0.168441,0,1,1,1,1,0
0.168544,0,1,1,1,1,1
0.168654,1,0,0,0,0,0
0.168765,1,0,0,0,0,1
0.168859,1,0,0,0,1,0
0.168961,1,0,0,0,1,1
0.169081,1,0,0,1,0,0
0.16918,1,0,0,1,0,1
0.169291,1,0,0,1,1,0
0.16941,1,0,0,1,1,1
0.169515,1,0,1,0,0,0
0.169615,1,0,1,0,0,1
0.169729,1,0,1,0,1,0
0.169841,1,0,1,0,1,1
0.16996,1,0,1,1,0,0
0.170078,1,0,1,1,0,1
0.17018,1,0,1,1,1,0
0.170296,1,0,1,1,1,1
0.170409,1,1,0,0,0,0
0.170525,1,1,0,0,0,1
0.170648,1,1,0,0,1,0
0.170804,1,1,0,0,1,1
0.17091,1,1,0,1,0,0
0.171048,1,1,0,1,0,1
0.171207,1,1,0,1,1,0
0.171334,1,1,0,1,1,1
0.171502,1,1,1,0,0,0
0.171643,1,1,1,0,0,1
0.171788,1,1,1,0,1,0
0.172003,1,1,1,0,1,1
0.172199,1,1,1,1,0,0
0.172393,1,1,1,1,0,1
0.172746,1,1,1,1,1,0
0.173096,1,1,1,1,1,1
0.174391,1,1,1,1,1,0
0.174732,1,1,1,1,0,0
0.174733,1,1,1,1,1,0
0.174735,1,1,1,1,0,0
0.174736,1,1,1,1,1,0
0.174737,1,1,1,1,0,0
0.174738,1,1,1,1,0,1
0.175089,1,1,1,1,0,0
0.175297,1,1,1,0,1,1
0.175484,1,1,1,0,1,0
0.175702,1,1,1,0,0,1
0.175846,1,1,1,0,0,0
0.175994,1,1,0,0,0,0
0.175995,1,1,1,0,0,0
0.176001,1,1,0,0,0,0
0.176002,1,1,1,0,0,0
0.176003,1,1,0,0,0,0
0.176004,1,1,1,0,0,0
0.176005,1,1,0,0,0,0
0.176006,1,1,1,0,0,0
0.176007,1,1,0,0,0,0
0.176011,1,1,1,0,0,0
0.176012,1,1,0,0,0,0
0.176022,1,1,0,0,1,1
0.176023,1,1,0,0,0,0
0.17603,1,1,0,0,1,1
0.176031,1,1,0,0,0,0
0.176033,1,1,0,0,1,1
0.176034,1,1,0,0,0,0
0.176036,1,1,0,0,1,1
0.176037,1,1,0,0,0,0
0.17604,1,1,0,0,0,1
0.176041,1,1,0,0,0,0
0.176044,1,1,0,0,1,1
0.176045,1,1,0,0,0,0
0.176048,1,1,0,0,1,1
0.176049,1,1,1,0,0,0
0.17605,1,1,0,1,1,1
0.176157,1,1,0,1,1,0
0.176281,1,1,0,1,0,1
0.176439,1,1,0,1,0,0
0.176583,1,1,0,0,0,0
0.176584,1,1,0,1,0,0
0.176585,1,1,0,0,1,1
0.176694,1,1,0,0,1,0
0.176842,1,1,0,0,0,1
0.176967,1,1,0,0,0,0
0.177115,1,0,0,0,0,0
0.177116,1,1,0,0,0,0
0.177123,1,0,0,0,0,0
0.177125,1,1,0,0,0,0
0.177126,1,0,0,0,0,0
0.177128,1,1,0,0,0,0
0.177129,1,0,0,0,0,0
0.177132,1,1,0,0,0,0
0.177133,1,0,0,0,0,0
0.177135,1,1,0,0,0,0
0.177136,1,0,0,0,0,0
0.177155,1,0,0,0,0,1
0.177156,1,0,0,0,0,0
0.177163,1,0,0,0,0,1
0.177164,1,0,0,0,0,0
0.177172,1,0,0,0,1,1
0.177173,1,0,0,0,0,0
0.177177,1,0,0,0,0,1
0.177178,1,0,0,0,0,0
0.177182,1,0,0,0,1,1
0.177183,1,0,0,0,0,0
0.177187,1,0,0,0,0,1
0.177188,1,0,0,0,1,1
0.177189,1,0,0,0,0,0
0.177194,1,0,0,0,0,1
0.177195,1,0,0,0,1,1
0.177196,1,0,0,0,0,0
0.177197,1,0,1,1,1,1
0.177213,1,0,1,1,1,0
0.177315,1,0,1,1,0,1
0.177418,1,0,1,1,0,0
0.177541,1,0,1,0,1,1
0.177652,1,0,1,0,1,0
0.17777,1,0,1,0,0,1
0.177878,1,0,1,0,0,0
0.177981,1,0,0,0,0,0
0.177991,1,0,0,0,1,1
0.177992,1,0,0,0,0,0
0.177994,1,0,0,1,1,1
0.178085,1,0,0,1,1,0
0.178212,1,0,0,1,0,1
0.178316,1,0,0,1,0,0
0.178412,1,0,0,0,1,1
0.178536,1,0,0,0,1,0
0.178635,1,0,0,0,0,1
0.178744,1,0,0,0,0,0
0.178867,0,0,0,0,0,0
0.178874,1,0,0,0,0,0
0.17888,0,0,0,0,0,0
0.178888,1,0,0,0,0,0
0.178892,0,0,0,0,0,0
0.178944,0,0,0,0,0,1
0.178945,0,0,0,0,0,0
0.178957,0,0,1,1,1,1
0.178958,0,1,1,1,1,1
0.178959,0,0,0,0,0,0
0.178969,0,0,0,0,0,1
0.17897,0,1,1,1,1,1
0.178972,0,0,0,0,0,0
0.178979,0,1,1,1,1,1
0.178981,0,0,0,0,0,0
0.178983,0,1,1,1,1,1
0.17899,0,1,1,1,1,0
0.179058,0,1,1,1,0,1
0.179161,0,1,1,1,0,0
0.179279,0,1,1,0,1,1
0.179385,0,1,1,0,1,0
0.179497,0,1,1,0,0,1
0.179616,0,1,1,0,0,0
0.179695,0,1,0,0,0,0
0.179696,0,1,0,1,1,1
0.179812,0,1,0,1,1,0
0.179951,0,1,0,1,0,1
0.180053,0,1,0,1,0,0
0.180182,0,1,0,0,1,1
0.180295,0,1,0,0,1,0
0.180412,0,1,0,0,0,1
0.180541,0,1,0,0,0,0
0.180671,0,0,0,0,0,0
0.180672,0,1,0,0,0,0
0.180673,0,0,1,1,1,1
0.180674,0,1,0,0,0,0
0.180676,0,0,1,1,1,1
0.180803,0,0,1,1,1,0
0.180951,0,0,1,1,0,1
0.181099,0,0,1,1,0,0
0.181279,0,0,1,0,1,1
0.181427,0,0,1,0,1,0
0.181632,0,0,1,0,0,1
0.181845,0,0,1,0,0,0
0.18209,0,0,0,1,1,1
0.182408,0,0,0,1,1,0
0.182764,0,0,0,1,0,1
0.183255,0,0,0,1,0,0
0.184254,0,0,0,0,0,0
0.184256,0,0,0,0,1,1
0.18482,0,0,0,0,0,0
0.184821,0,0,0,1,0,0
0.184823,0,0,0,0,0,0
0.184824,0,0,0,1,0,0
0.18526,0,0,0,1,0,1
0.185418,0,0,0,1,1,0
0.185556,0,0,0,1,1,1
0.18572,0,0,1,0,0,0
0.185877,0,0,1,0,0,1
0.186019,0,0,1,0,1,0
0.186174,0,0,1,0,1,1
0.186296,0,0,1,1,0,0
0.186452,0,0,1,1,0,1
0.186578,0,0,1,1,1,0
0.186716,0,0,1,1,1,1
0.186846,0,1,0,0,0,0
0.186971,0,1,0,0,0,1
0.187103,0,1,0,0,1,0
0.187211,0,1,0,0,1,1
0.187335,0,1,0,1,0,0
0.187452,0,1,0,1,0,1
0.187555,0,1,0,1,1,0
0.187692,0,1,0,1,1,1
0.187811,0,1,1,0,0,0
0.187886,0,1,1,0,0,1
0.188008,0,1,1,0,1,0
0.188117,0,1,1,0,1,1
0.188219,0,1,1,1,0,0
0.188337,0,1,1,1,0,1
0.188441,0,1,1,1,1,0
0.188543,0,1,1,1,1,1
0.188654,1,0,0,0,0,0
0.188764,1,0,0,0,0,1
0.188859,1,0,0,0,1,0
0.188961,1,0,0,0,1,1
0.189081,1,0,0,1,0,0
0.189179,1,0,0,1,0,1
0.18929,1,0,0,1,1,0
0.189409,1,0,0,1,1,1
0.189514,1,0,1,0,0,0
0.189615,1,0,1,0,0,1
0.189728,1,0,1,0,1,0
0.189839,1,0,1,0,1,1
0.189958,1,0,1,1,0,0
0.190078,1,0,1,1,0,1
0.190179,1,0,1,1,1,0
0.190294,1,0,1,1,1,1
0.190409,1,1,0,0,0,0
0.190524,1,1,0,0,0,1
0.190646,1,1,0,0,1,0
0.190803,1,1,0,0,1,1
0.190909,1,1,0,1,0,0
0.191047,1,1,0,1,0,1
0.191206,1,1,0,1,1,0
0.191333,1,1,0,1,1,1
0.191502,1,1,1,0,0,0
0.191641,1,1,1,0,0,1
0.191787,1,1,1,0,1,0
0.192001,1,1,1,0,1,1
0.192195,1,1,1,1,0,0
0.192392,1,1,1,1,0,1
0.192744,1,1,1,1,1,0
0.193099,1,1,1,1,1,1
0.194382,1,1,1,1,1,0
0.194383,1,1,1,1,1,1
0.194388,1,1,1,1,1,0
0.19473,1,1,1,1,0,0
0.194731,1,1,1,1,0,1
0.195089,1,1,1,1,0,0
0.195293,1,1,1,0,0,1
0.195294,1,1,1,0,0,0
0.195302,1,1,1,1,0,0
0.195303,1,1,1,0,1,1
0.195481,1,1,1,0,1,0
0.1957,1,1,1,0,0,1
0.195844,1,1,1,0,0,0
0.195995,1,1,0,0,0,0
0.195996,1,1,1,0,0,0
0.195997,1,1,0,0,0,0
0.195998,1,1,1,0,0,0
0.195999,1,1,0,0,0,0
0.196,1,1,1,0,0,0
0.196001,1,1,0,0,0,0
0.196002,1,1,1,0,0,0
0.196003,1,1,0,0,0,0
0.196004,1,1,1,0,0,0
0.196005,1,1,0,0,0,0
0.196006,1,1,1,0,0,0
0.196007,1,1,0,0,0,0
0.196013,1,1,1,0,0,0
0.196014,1,1,0,0,0,1
0.196015,1,1,0,0,0,0
0.196029,1,1,0,0,0,1
0.19603,1,1,0,0,0,0
0.196032,1,1,0,0,1,1
0.196033,1,1,0,0,0,0
0.196035,1,1,0,0,1,1
0.196036,1,1,0,0,0,0
0.196039,1,1,0,0,0,1
0.19604,1,1,0,0,0,0
0.196042,1,1,0,0,1,1
0.196043,1,1,0,0,0,0
0.196046,1,1,0,0,1,1
0.196047,1,1,0,1,1,1
0.196157,1,1,0,1,1,0
0.19628,1,1,0,1,0,1
0.196439,1,1,0,1,0,0
0.19658,1,1,0,0,0,0
0.196581,1,1,0,0,1,1
0.196693,1,1,0,0,1,0
0.19684,1,1,0,0,0,1
0.196965,1,1,0,0,0,0
0.197112,1,0,0,0,0,0
0.197113,1,1,0,0,0,0
0.19712,1,0,0,0,0,0
0.197121,1,1,0,0,0,0
0.197123,1,0,0,0,0,0
0.197125,1,1,0,0,0,0
0.197126,1,0,0,0,0,0
0.197128,1,1,0,0,0,0
0.197129,1,0,0,0,0,0
0.197131,1,1,0,0,0,0
0.197132,1,0,0,0,0,0
0.197135,1,1,0,0,0,0
0.197136,1,0,0,0,0,0
0.197159,1,0,0,0,0,1
0.19716,1,0,0,0,0,0
0.197163,1,0,0,0,1,1
0.197164,1,0,0,0,0,0
0.197172,1,0,0,0,1,1
0.197173,1,0,0,0,0,0
0.197177,1,0,0,0,1,1
0.197178,1,0,0,0,0,0
0.197182,1,0,0,0,1,1
0.197183,1,0,0,0,0,0
0.197188,1,0,1,1,1,1
0.197189,1,0,0,0,0,1
0.19719,1,0,0,0,0,0
0.197194,1,0,1,1,1,1
0.197211,1,0,1,1,1,0
0.197314,1,0,1,1,0,1
0.197418,1,0,1,1,0,0
0.197539,1,0,1,0,0,0
0.19754,1,0,1,0,1,1
0.197652,1,0,1,0,1,0
0.197768,1,0,1,0,0,1
0.197877,1,0,1,0,0,0
0.197981,1,0,0,0,0,0
0.197991,1,0,0,1,1,1
0.198084,1,0,0,1,1,0
0.198211,1,0,0,1,0,1
0.198316,1,0,0,1,0,0
0.198413,1,0,0,0,1,1
0.198535,1,0,0,0,1,0
0.198634,1,0,0,0,0,1
0.198744,1,0,0,0,0,0
0.198848,0,0,0,0,0,0
0.198849,1,0,0,0,0,0
0.198851,0,0,0,0,0,0
0.198852,1,0,0,0,0,0
0.198872,0,0,0,0,0,0
0.19888,1,0,0,0,0,0
0.198884,0,0,0,0,0,0
0.198893,1,0,0,0,0,0
0.198895,0,0,0,0,0,0
0.198936,0,0,0,0,0,1
0.198937,0,0,0,0,0,0
0.198948,0,0,0,0,0,1
0.198949,0,0,1,1,1,1
0.19895,0,0,0,0,0,0
0.198961,0,1,1,1,1,1
0.198963,0,0,0,0,0,0
0.198973,0,1,1,1,1,1
0.198975,0,0,0,0,0,0
0.19898,1,0,0,0,0,0
0.198981,0,0,0,0,0,0
0.198982,0,1,1,1,1,1
0.198989,0,1,1,1,1,0
0.199058,0,1,1,1,0,1
0.199161,0,1,1,1,0,0
0.199279,0,1,1,0,1,1
0.199385,0,1,1,0,1,0
0.199496,0,1,1,0,0,1
0.199616,0,1,1,0,0,0
0.199695,0,1,0,1,1,1
0.199812,0,1,0,1,1,0
0.199951,0,1,0,1,0,1
0.200053,,,,,,
0.200182,,,,,,
0.200294,,,,,,
0.200412,,,,,,
0.20054,,,,,,
0.200679,,,,,,
0.20068,,,,,,
0.200683,,,,,,
0.200803,,,,,,
0.200952,,,,,,
0.201099,,,,,,
0.201278,,,,,,
0.201427,,,,,,
0.201632,,,,,,
0.201845,,,,,,
0.202088,,,,,,
0.202089,,,,,,
0.202407,,,,,,
0.202763,,,,,,
0.203252,,,,,,
0.204253,,,,,,
0.204257,,,,,,
0.20482,,,,,,
0.204822,,,,,,
0.20526,,,,,,
0.205419,,,,,,
0.205555,,,,,,
0.20572,,,,,,
0.205879,,,,,,
0.206018,,,,,,
0.206174,,,,,,
0.206296,,,,,,
0.206452,,,,,,
0.206578,,,,,,
0.206715,,,,,,
0.206846,,,,,,
0.20697,,,,,,
0.207102,,,,,,
0.20721,,,,,,
0.207334,,,,,,
0.207451,,,,,,
0.207554,,,,,,
0.207691,,,,,,
0.207811,,,,,,
0.207885,,,,,,
0.208007,,,,,,
0.208117,,,,,,
0.208219,,,,,,
0.208337,,,,,,
0.20844,,,,,,
0.208543,,,,,,
0.208653,,,,,,
0.208763,,,,,,
0.208858,,,,,,
0.208859,,,,,,
0.208961,,,,,,
0.209081,,,,,,
0.20918,,,,,,
0.209289,,,,,,
0.209409,,,,,,
0.209514,,,,,,
0.209615,,,,,,
0.209727,,,,,,
0.209839,,,,,,
0.209958,,,,,,
0.210077,,,,,,
0.21018,,,,,,
0.210295,,,,,,
0.210409,,,,,,
0.210524,,,,,,
0.210647,,,,,,
0.210803,,,,,,
0.210909,,,,,,
0.211047,,,,,,
0.211206,,,,,,
0.211333,,,,,,
0.211503,,,,,,
0.211642,,,,,,
0.211787,,,,,,
0.212002,,,,,,
0.212198,,,,,,
0.212392,,,,,,
0.212749,,,,,,
0.213103,,,,,,
0.214372,,,,,,
0.214732,,,,,,
0.215087,,,,,,
0.215291,,,,,,
0.215292,,,,,,
0.21548,,,,,,
0.215698,,,,,,
0.215843,,,,,,
0.215988,,,,,,
0.215989,,,,,,
0.215997,,,,,,
0.215998,,,,,,
0.215999,,,,,,
0.216,,,,,,
0.216001,,,,,,
0.216002,,,,,,
0.216003,,,,,,
0.216004,,,,,,
0.216005,,,,,,
0.216011,,,,,,
0.216012,,,,,,
0.216038,,,,,,
0.216039,,,,,,
0.216041,,,,,,
0.216155,,,,,,
0.21628,,,,,,
0.216437,,,,,,
0.216579,,,,,,
0.21658,,,,,,
0.216693,,,,,,
0.21684,,,,,,
0.216964,,,,,,
0.217088,,,,,,
0.217089,,,,,,
0.21709,,,,,,
0.217091,,,,,,
0.21712,,,,,,
0.217121,,,,,,
0.217123,,,,,,
0.217125,,,,,,
0.217126,,,,,,
0.217128,,,,,,
0.217129,,,,,,
0.217132,,,,,,
0.217133,,,,,,
0.217135,,,,,,
0.217136,,,,,,
0.217168,,,,,,
0.217169,,,,,,
0.217173,,,,,,
0.217174,,,,,,
0.217178,,,,,,
0.217179,,,,,,
0.217183,,,,,,
0.217185,,,,,,
0.21719,,,,,,
0.217191,,,,,,
0.217209,,,,,,
0.217314,,,,,,
0.217417,,,,,,
0.217539,,,,,,
0.217652,,,,,,
0.217768,,,,,,
0.217877,,,,,,
0.217981,,,,,,
0.217992,,,,,,
0.217993,,,,,,
0.217994,,,,,,
0.217996,,,,,,
0.218084,,,,,,
0.218211,,,,,,
0.218315,,,,,,
0.218412,,,,,,
0.218535,,,,,,
0.218634,,,,,,
0.218744,,,,,,
0.218862,,,,,,
0.218866,,,,,,
0.218874,,,,,,
0.218882,,,,,,
0.218886,,,,,,
0.218895,,,,,,
0.218898,,,,,,
0.218939,,,,,,
0.21894,,,,,,
0.218952,,,,,,
0.218953,,,,,,
0.218954,,,,,,
0.218964,,,,,,
0.218965,,,,,,
0.218967,,,,,,
0.218975,,,,,,
0.218977,,,,,,
0.218981,,,,,,
0.218988,,,,,,
0.219058,,,,,,
0.219161,,,,,,
0.219279,,,,,,
0.219384,,,,,,
0.219496,,,,,,
0.219616,,,,,,
0.219695,,,,,,
0.219812,,,,,,
0.219951,,,,,,
0.220053,,,,,,
0.220182,,,,,,
0.220294,,,,,,
0.220412,,,,,,
0.22054,,,,,,
0.220673,,,,,,
0.220674,,,,,,
0.220675,,,,,,
0.220676,,,,,,
0.220677,,,,,,
0.220803,,,,,,
0.220951,,,,,,
0.221098,,,,,,
0.221279,,,,,,
0.221426,,,,,,
0.221632,,,,,,
0.221846,,,,,,
0.222089,,,,,,
0.222408,,,,,,
0.222762,,,,,,
0.223258,,,,,,
0.224246,,,,,,
0.22425,,,,,,
0.224823,,,,,,
0.224824,,,,,,
0.224825,,,,,,
0.224826,,,,,,
0.225258,,,,,,
0.225419,,,,,,
0.225557,,,,,,
0.225719,,,,,,
0.225877,,,,,,
0.226019,,,,,,
0.226173,,,,,,
0.226296,,,,,,
0.226452,,,,,,
0.226577,,,,,,
0.226578,,,,,,
0.226714,,,,,,
0.226845,,,,,,
0.22697,,,,,,
0.227102,,,,,,
0.22721,,,,,,
0.227334,,,,,,
0.227452,,,,,,
0.227554,,,,,,
0.227691,,,,,,
0.22781,,,,,,
0.227886,,,,,,
0.228007,,,,,,
0.228117,,,,,,
0.228219,,,,,,
0.228337,,,,,,
0.22844,,,,,,
0.228544,,,,,,
0.228654,,,,,,
0.228763,,,,,,
0.228859,,,,,,
0.228961,,,,,,
0.229081,,,,,,
0.22918,,,,,,
0.22929,,,,,,
0.22941,,,,,,
0.229514,,,,,,
0.229616,,,,,,
0.229728,,,,,,
0.22984,,,,,,
0.229958,,,,,,
0.230078,,,,,,
0.23018,,,,,,
0.230295,,,,,,
0.230409,,,,,,
0.23041,,,,,,
0.230525,,,,,,
0.230648,,,,,,
0.230804,,,,,,
0.23091,,,,,,
0.231048,,,,,,
0.231206,,,,,,
0.231334,,,,,,
0.231504,,,,,,
0.231644,,,,,,
0.23179,,,,,,
0.232004,,,,,,
0.2322,,,,,,
0.232396,,,,,,
0.23275,,,,,,
0.233103,,,,,,
0.234381,,,,,,
0.23473,,,,,,
0.235086,,,,,,
0.235292,,,,,,
0.235293,,,,,,
0.235294,,,,,,
0.235295,,,,,,
0.235479,,,,,,
0.235699,,,,,,
0.235842,,,,,,
0.235988,,,,,,
0.235989,,,,,,
0.23599,,,,,,
0.235991,,,,,,
0.235995,,,,,,
0.235996,,,,,,
0.235997,,,,,,
0.235998,,,,,,
0.235999,,,,,,
0.236,,,,,,
0.236001,,,,,,
0.236023,,,,,,
0.236024,,,,,,
0.236026,,,,,,
0.236027,,,,,,
0.236035,,,,,,
0.236036,,,,,,
0.236039,,,,,,
0.23604,,,,,,
0.236043,,,,,,
0.236044,,,,,,
0.236045,,,,,,
0.236154,,,,,,
0.236279,,,,,,
0.236439,,,,,,
0.236579,,,,,,
0.23658,,,,,,
0.236693,,,,,,
0.23684,,,,,,
0.236965,,,,,,
0.237116,,,,,,
0.237117,,,,,,
0.237119,,,,,,
0.23712,,,,,,
0.237122,,,,,,
0.237123,,,,,,
0.237125,,,,,,
0.237127,,,,,,
0.237128,,,,,,
0.23713,,,,,,
0.237131,,,,,,
0.23717,,,,,,
0.237171,,,,,,
0.237175,,,,,,
0.237176,,,,,,
0.23718,,,,,,
0.237181,,,,,,
0.237185,,,,,,
0.237186,,,,,,
0.237189,,,,,,
0.237208,,,,,,
0.237314,,,,,,
0.237417,,,,,,
0.237539,,,,,,
0.237652,,,,,,
0.237769,,,,,,
0.237877,,,,,,
0.237981,,,,,,
0.237992,,,,,,
0.238085,,,,,,
0.238211,,,,,,
0.238316,,,,,,
0.238413,,,,,,
0.238536,,,,,,
0.238634,,,,,,
0.238744,,,,,,
0.23885,,,,,,
0.238851,,,,,,
0.238863,,,,,,
0.238864,,,,,,
0.238865,,,,,,
0.238869,,,,,,
0.238877,,,,,,
0.238885,,,,,,
0.238889,,,,,,
0.238899,,,,,,
0.238901,,,,,,
0.238931,,,,,,
0.238932,,,,,,
0.238944,,,,,,
0.238945,,,,,,
0.238956,,,,,,
0.238957,,,,,,
0.238958,,,,,,
0.238959,,,,,,
0.23897,,,,,,
0.238972,,,,,,
0.238973,,,,,,
0.238977,,,,,,
0.238984,,,,,,
0.239058,,,,,,
0.239161,,,,,,
0.23928,,,,,,
0.239385,,,,,,
0.239497,,,,,,
0.239616,,,,,,
0.239695,,,,,,
0.239696,,,,,,
0.239812,,,,,,
0.239951,,,,,,
0.239952,,,,,,
0.240053,,,,,,
0.240182,,,,,,
0.240294,,,,,,
0.240412,,,,,,
0.240541,,,,,,
0.240671,,,,,,
0.240672,,,,,,
0.240673,,,,,,
0.240674,,,,,,
0.240675,,,,,,
0.240676,,,,,,
0.240677,,,,,,
0.240803,,,,,,
0.240951,,,,,,
0.241099,,,,,,
0.241278,,,,,,
0.241279,,,,,,
0.241426,,,,,,
0.241632,,,,,,
0.241845,,,,,,
0.242087,,,,,,
0.242408,,,,,,
0.242765,,,,,,
0.243254,,,,,,
0.244255,,,,,,
0.244257,,,,,,
0.24482,,,,,,
0.244821,,,,,,
0.244822,,,,,,
0.244823,,,,,,
0.245256,,,,,,
0.245417,,,,,,
0.245556,,,,,,
0.24572,,,,,,
0.245877,,,,,,
0.246017,,,,,,
0.246173,,,,,,
0.246296,,,,,,
0.246452,,,,,,
0.246579,,,,,,
0.246715,,,,,,
0.246845,,,,,,
0.246846,,,,,,
0.246971,,,,,,
0.247102,,,,,,
0.24721,,,,,,
0.247334,,,,,,
0.247452,,,,,,
0.247554,,,,,,
0.247691,,,,,,
0.247811,,,,,,
0.247887,,,,,,
0.248008,,,,,,
0.248117,,,,,,
0.248219,,,,,,
0.248337,,,,,,
0.248441,,,,,,
0.248544,,,,,,
0.248654,,,,,,
0.248763,,,,,,
0.24886,,,,,,
0.248961,,,,,,
0.249082,,,,,,
0.249181,,,,,,
0.249291,,,,,,
0.24941,,,,,,
0.249515,,,,,,
0.249516,,,,,,
0.249616,,,,,,
0.249729,,,,,,
0.24984,,,,,,
0.249959,,,,,,
0.250079,,,,,,
0.250181,,,,,,
0.250296,,,,,,
0.25041,,,,,,
0.250525,,,,,,
0.250648,,,,,,
0.250805,,,,,,
0.250911,,,,,,
0.251049,,,,,,
0.251207,,,,,,
0.251336,,,,,,
0.251505,,,,,,
0.251644,,,,,,
0.251789,,,,,,
0.252004,,,,,,
0.2522,,,,,,
0.252396,,,,,,
0.25275,,,,,,
0.253104,,,,,,
0.254377,,,,,,
0.254731,,,,,,
0.254732,,,,,,
0.255089,,,,,,
0.255292,,,,,,
0.255482,,,,,,
0.255701,,,,,,
0.255845,,,,,,
0.255983,,,,,,
0.255984,,,,,,
0.255993,,,,,,
0.255994,,,,,,
0.255995,,,,,,
0.255996,,,,,,
0.256,,,,,,
0.256001,,,,,,
0.256002,,,,,,
0.256017,,,,,,
0.256018,,,,,,
0.256021,,,,,,
0.256022,,,,,,
0.256029,,,,,,
0.25603,,,,,,
0.256032,,,,,,
0.256033,,,,,,
0.256039,,,,,,
0.25604,,,,,,
0.256043,,,,,,
0.256044,,,,,,
0.256047,,,,,,
0.256048,,,,,,
0.25605,,,,,,
0.256157,,,,,,
0.256281,,,,,,
0.256439,,,,,,
0.256581,,,,,,
0.256694,,,,,,
0.256841,,,,,,
0.256966,,,,,,
0.257092,,,,,,
0.257094,,,,,,
0.257095,,,,,,
0.257096,,,,,,
0.257115,,,,,,
0.257116,,,,,,
0.257123,,,,,,
0.257125,,,,,,
0.257126,,,,,,
0.257128,,,,,,
0.257129,,,,,,
0.257131,,,,,,
0.257133,,,,,,
0.257135,,,,,,
0.257136,,,,,,
0.257151,,,,,,
0.257152,,,,,,
0.257167,,,,,,
0.257168,,,,,,
0.257171,,,,,,
0.257172,,,,,,
0.257176,,,,,,
0.257177,,,,,,
0.257181,,,,,,
0.257182,,,,,,
0.257186,,,,,,
0.257187,,,,,,
0.257189,,,,,,
0.257208,,,,,,
0.257315,,,,,,
0.257419,,,,,,
0.25754,,,,,,
0.257653,,,,,,
0.257769,,,,,,
0.257878,,,,,,
0.25798,,,,,,
0.257986,,,,,,
0.257987,,,,,,
0.25799,,,,,,
0.257991,,,,,,
0.257992,,,,,,
0.257993,,,,,,
0.257994,,,,,,
0.258085,,,,,,
0.258212,,,,,,
0.258316,,,,,,
0.258413,,,,,,
0.258536,,,,,,
0.258634,,,,,,
0.258744,,,,,,
0.258861,,,,,,
0.258867,,,,,,
0.258876,,,,,,
0.258884,,,,,,
0.258887,,,,,,
0.258897,,,,,,
0.258899,,,,,,
0.25894,,,,,,
0.258941,,,,,,
0.258953,,,,,,
0.258954,,,,,,
0.258955,,,,,,
0.258965,,,,,,
0.258966,,,,,,
0.258967,,,,,,
0.258969,,,,,,
0.258977,,,,,,
0.258979,,,,,,
0.25898,,,,,,
0.258983,,,,,,
0.258989,,,,,,
0.259057,,,,,,
0.259162,,,,,,
0.259279,,,,,,
0.259384,,,,,,
0.259497,,,,,,
0.259617,,,,,,
0.259696,,,,,,
0.259812,,,,,,
0.259951,,,,,,
0.260053,,,,,,
0.260182,,,,,,
0.260294,,,,,,
0.260412,,,,,,
0.260541,,,,,,
0.260671,,,,,,
0.260672,,,,,,
0.260673,,,,,,
0.260674,,,,,,
0.260676,,,,,,
0.260803,,,,,,
0.260951,,,,,,
0.261099,,,,,,
0.261279,,,,,,
0.261426,,,,,,
0.261633,,,,,,
0.261845,,,,,,
0.262088,,,,,,
0.262408,,,,,,
0.26276,,,,,,
0.262761,,,,,,
0.263255,,,,,,
0.264257,,,,,,
0.264261,,,,,,
0.264819,,,,,,
0.264821,,,,,,
0.265255,,,,,,
0.265418,,,,,,
0.265556,,,,,,
0.265719,,,,,,
0.265878,,,,,,
0.266018,,,,,,
0.266173,,,,,,
0.266296,,,,,,
0.266453,,,,,,
0.266578,,,,,,
0.266716,,,,,,
0.266845,,,,,,
0.266971,,,,,,
0.267103,,,,,,
0.267211,,,,,,
0.267335,,,,,,
0.267452,,,,,,
0.267555,,,,,,
0.267691,,,,,,
0.267811,,,,,,
0.267886,,,,,,
0.268007,,,,,,
0.268117,,,,,,
0.26822,,,,,,
0.268337,,,,,,
0.26844,,,,,,
0.268544,,,,,,
0.268654,,,,,,
0.268763,,,,,,
0.268859,,,,,,
0.268961,,,,,,
0.269082,,,,,,
0.26918,,,,,,
0.26929,,,,,,
0.26941,,,,,,
0.269515,,,,,,
0.269615,,,,,,
0.269729,,,,,,
0.26984,,,,,,
0.269958,,,,,,
0.270078,,,,,,
0.27018,,,,,,
0.270295,,,,,,
0.270409,,,,,,
0.270525,,,,,,
0.270647,,,,,,
0.270803,,,,,,
0.270909,,,,,,
0.271047,,,,,,
0.271206,,,,,,
0.271334,,,,,,
0.271503,,,,,,
0.271644,,,,,,
0.271787,,,,,,
0.271788,,,,,,
0.272003,,,,,,
0.272199,,,,,,
0.272393,,,,,,
0.272749,,,,,,
0.2731,,,,,,
0.274393,,,,,,
0.274733,,,,,,
0.27509,,,,,,
0.275297,,,,,,
0.275483,,,,,,
0.275702,,,,,,
0.275845,,,,,,
0.275993,,,,,,
0.275994,,,,,,
0.275995,,,,,,
0.275996,,,,,,
0.275997,,,,,,
0.275998,,,,,,
0.276002,,,,,,
0.276003,,,,,,
0.276004,,,,,,
0.27601,,,,,,
0.276011,,,,,,
0.276012,,,,,,
0.276013,,,,,,
0.276039,,,,,,
0.276157,,,,,,
0.27628,,,,,,
0.276439,,,,,,
0.27658,,,,,,
0.276693,,,,,,
0.276841,,,,,,
0.276966,,,,,,
0.277121,,,,,,
0.277122,,,,,,
0.277124,,,,,,
0.277126,,,,,,
0.277127,,,,,,
0.277129,,,,,,
0.27713,,,,,,
0.277172,,,,,,
0.277173,,,,,,
0.277177,,,,,,
0.277178,,,,,,
0.277182,,,,,,
0.277183,,,,,,
0.277188,,,,,,
0.277189,,,,,,
0.277194,,,,,,
0.277211,,,,,,
0.277315,,,,,,
0.277418,,,,,,
0.27754,,,,,,
0.277652,,,,,,
0.277769,,,,,,
0.277877,,,,,,
0.27798,,,,,,
0.277981,,,,,,
0.277982,,,,,,
0.277985,,,,,,
0.277986,,,,,,
0.277995,,,,,,
0.277996,,,,,,
0.278085,,,,,,
0.278211,,,,,,
0.278315,,,,,,
0.278412,,,,,,
0.278535,,,,,,
0.278634,,,,,,
0.278743,,,,,,
0.278847,,,,,,
0.278848,,,,,,
0.27885,,,,,,
0.278851,,,,,,
0.278872,,,,,,
0.278878,,,,,,
0.278884,,,,,,
0.278892,,,,,,
0.278895,,,,,,
0.278947,,,,,,
0.278948,,,,,,
0.27896,,,,,,
0.278962,,,,,,
0.278963,,,,,,
0.278971,,,,,,
0.278972,,,,,,
0.278974,,,,,,
0.27898,,,,,,
0.278987,,,,,,
0.279058,,,,,,
0.279161,,,,,,
0.279279,,,,,,
0.279385,,,,,,
0.279497,,,,,,
0.279616,,,,,,
0.279695,,,,,,
0.279812,,,,,,
0.279951,,,,,,
0.280053,,,,,,
0.280181,,,,,,
0.280294,,,,,,
0.280411,,,,,,
0.28054,,,,,,
0.280676,,,,,,
0.280677,,,,,,
0.280678,,,,,,
0.280803,,,,,,
0.280951,,,,,,
0.281098,,,,,,
0.281278,,,,,,
0.281426,,,,,,
0.281631,,,,,,
0.281845,,,,,,
0.282086,,,,,,
0.282087,,,,,,
0.282406,,,,,,
0.282762,,,,,,
0.283256,,,,,,
0.284262,,,,,,
0.284264,,,,,,
0.284819,,,,,,
0.28482,,,,,,
0.284821,,,,,,
0.284822,,,,,,
0.285257,,,,,,
0.28542,,,,,,
0.285555,,,,,,
0.285718,,,,,,
0.285879,,,,,,
0.286017,,,,,,
0.286173,,,,,,
0.286296,,,,,,
0.286452,,,,,,
0.286578,,,,,,
0.286716,,,,,,
0.286845,,,,,,
0.28697,,,,,,
0.287103,,,,,,
0.28721,,,,,,
0.287335,,,,,,
0.287451,,,,,,
0.287554,,,,,,
0.287691,,,,,,
0.28781,,,,,,
0.287886,,,,,,
0.288007,,,,,,
0.288116,,,,,,
0.288219,,,,,,
0.288336,,,,,,
0.28844,,,,,,
0.288544,,,,,,
0.288653,,,,,,
0.288763,,,,,,
0.288859,,,,,,
0.288961,,,,,,
0.289081,,,,,,
0.28918,,,,,,
0.289289,,,,,,
0.289409,,,,,,
0.289514,,,,,,
0.289614,,,,,,
0.289728,,,,,,
0.289838,,,,,,
0.289958,,,,,,
0.290077,,,,,,
0.290179,,,,,,
0.290294,,,,,,
0.290409,,,,,,
0.290522,,,,,,
0.290645,,,,,,
0.290646,,,,,,
0.290802,,,,,,
0.290908,,,,,,
0.291046,,,,,,
0.291205,,,,,,
0.291333,,,,,,
0.291503,,,,,,
0.291643,,,,,,
0.291785,,,,,,
0.292,,,,,,
0.292196,,,,,,
0.292197,,,,,,
0.292389,,,,,,
0.292747,,,,,,
0.293094,,,,,,
0.294386,,,,,,
0.294387,,,,,,
0.294388,,,,,,
0.294735,,,,,,
0.294736,,,,,,
0.295088,,,,,,
0.295292,,,,,,
0.295481,,,,,,
0.295698,,,,,,
0.295844,,,,,,
0.295989,,,,,,
0.29599,,,,,,
0.295994,,,,,,
0.295995,,,,,,
0.295996,,,,,,
0.295997,,,,,,
0.295998,,,,,,
0.295999,,,,,,
0.296,,,,,,
0.296001,,,,,,
0.296002,,,,,,
0.296003,,,,,,
0.296004,,,,,,
0.296007,,,,,,
0.296008,,,,,,
0.296009,,,,,,
0.29601,,,,,,
0.29602,,,,,,
0.296021,,,,,,
0.296028,,,,,,
0.296029,,,,,,
0.296031,,,,,,
0.296032,,,,,,
0.296034,,,,,,
0.296035,,,,,,
0.296037,,,,,,
0.296038,,,,,,
0.296041,,,,,,
0.296042,,,,,,
0.296043,,,,,,
0.296156,,,,,,
0.296279,,,,,,
0.296438,,,,,,
0.296579,,,,,,
0.296581,,,,,,
0.296692,,,,,,
0.29684,,,,,,
0.296965,,,,,,
0.297114,,,,,,
0.297115,,,,,,
0.297122,,,,,,
0.297124,,,,,,
0.297125,,,,,,
0.297127,,,,,,
0.297128,,,,,,
0.297134,,,,,,
0.297135,,,,,,
0.297137,,,,,,
0.297138,,,,,,
0.297166,,,,,,
0.297167,,,,,,
0.29718,,,,,,
0.297181,,,,,,
0.297186,,,,,,
0.297187,,,,,,
0.297191,,,,,,
0.297192,,,,,,
0.297209,,,,,,
0.297314,,,,,,
0.297417,,,,,,
0.297539,,,,,,
0.297651,,,,,,
0.297769,,,,,,
0.297876,,,,,,
0.29798,,,,,,
0.297987,,,,,,
0.297991,,,,,,
0.297992,,,,,,
0.297993,,,,,,
0.298084,,,,,,
0.29821,,,,,,
0.298315,,,,,,
0.298412,,,,,,
0.298535,,,,,,
0.298634,,,,,,
0.298743,,,,,,
0.298851,,,,,,
0.298852,,,,,,
0.298868,,,,,,
0.298875,,,,,,
0.29888,,,,,,
0.298889,,,,,,
0.298892,,,,,,
0.298945,,,,,,
0.298946,,,,,,
0.298947,,,,,,
0.298958,,,,,,
0.298959,,,,,,
0.29896,,,,,,
0.298971,,,,,,
0.298972,,,,,,
0.298973,,,,,,
0.298974,,,,,,
0.298976,,,,,,
0.298977,,,,,,
0.298984,,,,,,
0.299058,,,,,,
0.29916,,,,,,
0.299279,,,,,,
0.299384,,,,,,
0.299496,,,,,,
0.299616,,,,,,
0.299695,,,,,,
0.299812,,,,,,
0.299951,,,,,,
0.300053,,,,,,
0.300182,,,,,,
0.300294,,,,,,
0.300411,,,,,,
0.30054,,,,,,
0.30067,,,,,,
0.300671,,,,,,
0.300672,,,,,,
0.300673,,,,,,
0.300674,,,,,,
0.300675,,,,,,
0.300802,,,,,,
0.300951,,,,,,
0.301098,,,,,,
0.301279,,,,,,
0.301426,,,,,,
0.301632,,,,,,
0.301844,,,,,,
0.302088,,,,,,
0.302406,,,,,,
0.302765,,,,,,
0.303254,,,,,,
0.304262,,,,,,
0.304265,,,,,,
0.304823,,,,,,
0.304824,,,,,,
0.304825,,,,,,
0.30526,,,,,,
0.305418,,,,,,
0.305556,,,,,,
0.305719,,,,,,
0.305879,,,,,,
0.306017,,,,,,
0.306173,,,,,,
0.306296,,,,,,
0.306452,,,,,,
0.306578,,,,,,
0.306715,,,,,,
0.306845,,,,,,
0.306969,,,,,,
0.307102,,,,,,
0.30721,,,,,,
0.307334,,,,,,
0.307451,,,,,,
0.307554,,,,,,
0.30769,,,,,,
0.30781,,,,,,
0.307885,,,,,,
0.308007,,,,,,
0.308116,,,,,,
0.308218,,,,,,
0.308336,,,,,,
0.30844,,,,,,
0.308543,,,,,,
0.308653,,,,,,
0.308762,,,,,,
0.308858,,,,,,
0.30896,,,,,,
0.30908,,,,,,
0.309179,,,,,,
0.309289,,,,,,
0.30929,,,,,,
0.309408,,,,,,
0.309514,,,,,,
0.309614,,,,,,
0.309727,,,,,,
0.309838,,,,,,
0.309957,,,,,,
0.310077,,,,,,
0.310179,,,,,,
0.310294,,,,,,
0.310408,,,,,,
0.310523,,,,,,
0.310646,,,,,,
0.310802,,,,,,
0.310908,,,,,,
0.311048,,,,,,
0.311206,,,,,,
0.311332,,,,,,
0.311503,,,,,,
0.311643,,,,,,
0.311788,,,,,,
0.312001,,,,,,
0.312199,,,,,,
0.312393,,,,,,
0.312746,,,,,,
0.312747,,,,,,
0.312748,,,,,,
0.312749,,,,,,
0.312751,,,,,,
0.312752,,,,,,
0.312753,,,,,,
0.313101,,,,,,
0.314378,,,,,,
0.314729,,,,,,
0.315086,,,,,,
0.315292,,,,,,
0.315293,,,,,,
0.315294,,,,,,
0.315295,,,,,,
0.31548,,,,,,
0.315698,,,,,,
0.315699,,,,,,
0.315843,,,,,,
0.315992,,,,,,
0.315993,,,,,,
0.315994,,,,,,
0.315995,,,,,,
0.315999,,,,,,
0.316005,,,,,,
0.316006,,,,,,
0.316007,,,,,,
0.316008,,,,,,
0.316013,,,,,,
0.316014,,,,,,
0.316018,,,,,,
0.316019,,,,,,
0.316026,,,,,,
0.316027,,,,,,
0.316029,,,,,,
0.31603,,,,,,
0.316032,,,,,,
0.316033,,,,,,
0.316039,,,,,,
0.31604,,,,,,
0.316043,,,,,,
0.316044,,,,,,
0.316046,,,,,,
0.316155,,,,,,
0.316279,,,,,,
0.316437,,,,,,
0.316579,,,,,,
0.31658,,,,,,
0.316692,,,,,,
0.316839,,,,,,
0.316965,,,,,,
0.317092,,,,,,
0.317093,,,,,,
0.317094,,,,,,
0.317095,,,,,,
0.317116,,,,,,
0.317117,,,,,,
0.317119,,,,,,
0.31712,,,,,,
0.317122,,,,,,
0.317124,,,,,,
0.317125,,,,,,
0.317127,,,,,,
0.317128,,,,,,
0.317172,,,,,,
0.317173,,,,,,
0.317177,,,,,,
0.317178,,,,,,
0.317183,,,,,,
0.317184,,,,,,
0.317188,,,,,,
0.317207,,,,,,
0.317313,,,,,,
0.317417,,,,,,
0.317539,,,,,,
0.317651,,,,,,
0.317768,,,,,,
0.317877,,,,,,
0.31798,,,,,,
0.317991,,,,,,
0.317992,,,,,,
0.318084,,,,,,
0.31821,,,,,,
0.318315,,,,,,
0.318411,,,,,,
0.318534,,,,,,
0.318633,,,,,,
0.318743,,,,,,
0.318849,,,,,,
0.31885,,,,,,
0.318858,,,,,,
0.318859,,,,,,
0.318861,,,,,,
0.318863,,,,,,
0.318872,,,,,,
0.318879,,,,,,
0.318883,,,,,,
0.318893,,,,,,
0.318895,,,,,,
0.318923,,,,,,
0.318924,,,,,,
0.318946,,,,,,
0.318947,,,,,,
0.318948,,,,,,
0.31896,,,,,,
0.318962,,,,,,
0.318966,,,,,,
0.318967,,,,,,
0.318974,,,,,,
0.319057,,,,,,
0.31916,,,,,,
0.319278,,,,,,
0.319384,,,,,,
0.319496,,,,,,
0.319615,,,,,,
0.319695,,,,,,
0.319812,,,,,,
0.319951,,,,,,
0.320053,,,,,,
0.320182,,,,,,
0.320294,,,,,,
0.320412,,,,,,
0.32054,,,,,,
0.320676,,,,,,
0.320802,,,,,,
0.320951,,,,,,
0.321098,,,,,,
0.321279,,,,,,
0.321426,,,,,,
0.321632,,,,,,
0.321845,,,,,,
0.322089,,,,,,
0.322407,,,,,,
0.322762,,,,,,
0.323256,,,,,,
0.324236,,,,,,
0.324238,,,,,,
0.324824,,,,,,
0.324825,,,,,,
0.324826,,,,,,
0.325259,,,,,,
0.325417,,,,,,
0.325554,,,,,,
0.325718,,,,,,
0.325878,,,,,,
0.326018,,,,,,
0.326173,,,,,,
0.326296,,,,,,
0.326297,,,,,,
0.326452,,,,,,
0.326578,,,,,,
0.326715,,,,,,
0.326845,,,,,,
0.326969,,,,,,
0.327102,,,,,,
0.327209,,,,,,
0.327334,,,,,,
0.327451,,,,,,
0.327553,,,,,,
0.327554,,,,,,
0.32769,,,,,,
0.32781,,,,,,
0.327886,,,,,,
0.328007,,,,,,
0.328117,,,,,,
0.328219,,,,,,
0.328336,,,,,,
0.32844,,,,,,
0.328544,,,,,,
0.328654,,,,,,
0.328763,,,,,,
0.328859,,,,,,
0.328961,,,,,,
0.329081,,,,,,
0.329179,,,,,,
0.32929,,,,,,
0.329409,,,,,,
0.329514,,,,,,
0.329615,,,,,,
0.329728,,,,,,
0.329839,,,,,,
0.329959,,,,,,
0.330077,,,,,,
0.33018,,,,,,
0.330295,,,,,,
0.330409,,,,,,
0.330524,,,,,,
0.330647,,,,,,
0.330803,,,,,,
0.33091,,,,,,
0.331049,,,,,,
0.331207,,,,,,
0.331333,,,,,,
0.331503,,,,,,
0.331644,,,,,,
0.331788,,,,,,
0.332004,,,,,,
0.332199,,,,,,
0.332394,,,,,,
0.332749,,,,,,
0.33275,,,,,,
0.333103,,,,,,
0.334375,,,,,,
0.334729,,,,,,
0.33473,,,,,,
0.335085,,,,,,
0.335291,,,,,,
0.335295,,,,,,
0.335296,,,,,,
0.335297,,,,,,
0.33548,,,,,,
0.335698,,,,,,
0.335842,,,,,,
0.335992,,,,,,
0.335993,,,,,,
0.335996,,,,,,
0.335997,,,,,,
0.335999,,,,,,
0.336,,,,,,
0.336001,,,,,,
0.336005,,,,,,
0.336006,,,,,,
0.336025,,,,,,
0.336026,,,,,,
0.336037,,,,,,
0.336038,,,,,,
0.336044,,,,,,
0.336045,,,,,,
0.336046,,,,,,
0.336156,,,,,,
0.336279,,,,,,
0.336437,,,,,,
0.336579,,,,,,
0.33658,,,,,,
0.336693,,,,,,
0.336839,,,,,,
0.336965,,,,,,
0.337112,,,,,,
0.337113,,,,,,
0.337115,,,,,,
0.337116,,,,,,
0.337118,,,,,,
0.337119,,,,,,
0.337121,,,,,,
0.337122,,,,,,
0.337124,,,,,,
0.337125,,,,,,
0.337127,,,,,,
0.337129,,,,,,
0.33713,,,,,,
0.33716,,,,,,
0.337161,,,,,,
0.337169,,,,,,
0.33717,,,,,,
0.337184,,,,,,
0.337185,,,,,,
0.33719,,,,,,
0.337209,,,,,,
0.337314,,,,,,
0.337417,,,,,,
0.337539,,,,,,
0.337652,,,,,,
0.337768,,,,,,
0.337877,,,,,,
0.337981,,,,,,
0.337993,,,,,,
0.338084,,,,,,
0.33821,,,,,,
0.338315,,,,,,
0.338412,,,,,,
0.338535,,,,,,
0.338634,,,,,,
0.338743,,,,,,
0.33886,,,,,,
0.338862,,,,,,
0.338863,,,,,,
0.338864,,,,,,
0.338873,,,,,,
0.338881,,,,,,
0.338886,,,,,,
0.338895,,,,,,
0.338897,,,,,,
0.338951,,,,,,
0.338952,,,,,,
0.338953,,,,,,
0.338964,,,,,,
0.338965,,,,,,
0.338967,,,,,,
0.338968,,,,,,
0.338975,,,,,,
0.338976,,,,,,
0.338978,,,,,,
0.338979,,,,,,
0.338983,,,,,,
0.338989,,,,,,
0.339058,,,,,,
0.339161,,,,,,
0.339279,,,,,,
0.339384,,,,,,
0.339497,,,,,,
0.339616,,,,,,
0.339695,,,,,,
0.339812,,,,,,
0.339951,,,,,,
0.340053,,,,,,
0.340182,,,,,,
0.340294,,,,,,
0.340411,,,,,,
0.340412,,,,,,
0.34054,,,,,,
0.34067,,,,,,
0.340671,,,,,,
0.340672,,,,,,
0.340803,,,,,,
0.340951,,,,,,
0.341098,,,,,,
0.341278,,,,,,
0.341426,,,,,,
0.341632,,,,,,
0.341844,,,,,,
0.342089,,,,,,
0.342408,,,,,,
0.342764,,,,,,
0.343255,,,,,,
0.344265,,,,,,
0.344268,,,,,,
0.344812,,,,,,
0.344813,,,,,,
0.344814,,,,,,
0.34526,,,,,,
0.345418,,,,,,
0.345419,,,,,,
0.345554,,,,,,
0.345721,,,,,,
0.345879,,,,,,
0.346018,,,,,,
0.346173,,,,,,
0.346296,,,,,,
0.346451,,,,,,
0.346577,,,,,,
0.346715,,,,,,
0.346845,,,,,,
0.346969,,,,,,
0.347102,,,,,,
0.34721,,,,,,
0.347334,,,,,,
0.347452,,,,,,
0.347554,,,,,,
0.34769,,,,,,
0.347809,,,,,,
0.347886,,,,,,
0.348007,,,,,,
0.348116,,,,,,
0.348219,,,,,,
0.348336,,,,,,
0.34844,,,,,,
0.348441,,,,,,
0.348543,,,,,,
0.348653,,,,,,
0.348654,,,,,,
0.348763,,,,,,
0.348859,,,,,,
0.348961,,,,,,
0.349081,,,,,,
0.34918,,,,,,
0.34929,,,,,,
0.34941,,,,,,
0.349515,,,,,,
0.349616,,,,,,
0.349729,,,,,,
0.349839,,,,,,
0.349959,,,,,,
0.350078,,,,,,
0.35018,,,,,,
0.350296,,,,,,
0.35041,,,,,,
0.350525,,,,,,
0.350648,,,,,,
0.350804,,,,,,
0.35091,,,,,,
0.351049,,,,,,
0.351206,,,,,,
0.351334,,,,,,
0.351503,,,,,,
0.351643,,,,,,
0.351789,,,,,,
0.352005,,,,,,
0.3522,,,,,,
0.352394,,,,,,
0.352749,,,,,,
0.353106,,,,,,
0.354377,,,,,,
0.35473,,,,,,
0.354732,,,,,,
0.354734,,,,,,
0.355089,,,,,,
0.355293,,,,,,
0.355294,,,,,,
0.355482,,,,,,
0.355699,,,,,,
0.355844,,,,,,
0.35599,,,,,,
0.355991,,,,,,
0.355995,,,,,,
0.355996,,,,,,
0.355997,,,,,,
0.355998,,,,,,
0.355999,,,,,,
0.356,,,,,,
0.356001,,,,,,
0.356002,,,,,,
0.356003,,,,,,
0.356004,,,,,,
0.356005,,,,,,
0.356006,,,,,,
0.356007,,,,,,
0.356022,,,,,,
0.356023,,,,,,
0.356025,,,,,,
0.356026,,,,,,
0.356031,,,,,,
0.356032,,,,,,
0.356034,,,,,,
0.356035,,,,,,
0.356037,,,,,,
0.356038,,,,,,
0.356041,,,,,,
0.356042,,,,,,
0.356156,,,,,,
0.35628,,,,,,
0.356438,,,,,,
0.35658,,,,,,
0.356581,,,,,,
0.356693,,,,,,
0.356841,,,,,,
0.356966,,,,,,
0.357115,,,,,,
0.357116,,,,,,
0.357118,,,,,,
0.357119,,,,,,
0.357121,,,,,,
0.357122,,,,,,
0.357124,,,,,,
0.357125,,,,,,
0.357127,,,,,,
0.357129,,,,,,
0.35713,,,,,,
0.357132,,,,,,
0.357133,,,,,,
0.357168,,,,,,
0.357169,,,,,,
0.357173,,,,,,
0.357174,,,,,,
0.357178,,,,,,
0.357179,,,,,,
0.357183,,,,,,
0.357184,,,,,,
0.357189,,,,,,
0.35719,,,,,,
0.357191,,,,,,
0.357196,,,,,,
0.357212,,,,,,
0.357314,,,,,,
0.357417,,,,,,
0.35754,,,,,,
0.357651,,,,,,
0.357769,,,,,,
0.357877,,,,,,
0.357981,,,,,,
0.357983,,,,,,
0.357984,,,,,,
0.35799,,,,,,
0.357991,,,,,,
0.357992,,,,,,
0.358084,,,,,,
0.358211,,,,,,
0.358315,,,,,,
0.358412,,,,,,
0.358536,,,,,,
0.358634,,,,,,
0.358744,,,,,,
0.358867,,,,,,
0.358873,,,,,,
0.35888,,,,,,
0.358889,,,,,,
0.358892,,,,,,
0.358945,,,,,,
0.358947,,,,,,
0.358959,,,,,,
0.35896,,,,,,
0.358971,,,,,,
0.358979,,,,,,
0.359058,,,,,,
0.359161,,,,,,
0.359279,,,,,,
0.359384,,,,,,
0.359497,,,,,,
0.359616,,,,,,
0.359695,,,,,,
0.359813,,,,,,
0.359951,,,,,,
0.360053,,,,,,
0.360182,,,,,,
0.360294,,,,,,
0.360412,,,,,,
0.36054,,,,,,
0.360677,,,,,,
0.360678,,,,,,
0.360679,,,,,,
0.360802,,,,,,
0.360951,,,,,,
0.361099,,,,,,
0.361279,,,,,,
0.361426,,,,,,
0.361631,,,,,,
0.361844,,,,,,
0.362088,,,,,,
0.362089,,,,,,
0.362406,,,,,,
0.362763,,,,,,
0.363255,,,,,,
0.364259,,,,,,
0.364261,,,,,,
0.364812,,,,,,
0.364813,,,,,,
0.365259,,,,,,
0.365417,,,,,,
0.365555,,,,,,
0.36572,,,,,,
0.365879,,,,,,
0.366016,,,,,,
0.366173,,,,,,
0.366296,,,,,,
0.366451,,,,,,
0.366577,,,,,,
0.366715,,,,,,
0.366845,,,,,,
0.36697,,,,,,
0.367102,,,,,,
0.36721,,,,,,
0.367334,,,,,,
0.367452,,,,,,
0.367554,,,,,,
0.367691,,,,,,
0.36781,,,,,,
0.367886,,,,,,
0.368007,,,,,,
0.368117,,,,,,
0.368219,,,,,,
0.368336,,,,,,
0.36844,,,,,,
0.368543,,,,,,
0.368653,,,,,,
0.368763,,,,,,
0.368859,,,,,,
0.36896,,,,,,
0.369081,,,,,,
0.36918,,,,,,
0.36929,,,,,,
0.36941,,,,,,
0.369514,,,,,,
0.369615,,,,,,
0.369727,,,,,,
0.369728,,,,,,
0.369839,,,,,,
0.369958,,,,,,
0.370077,,,,,,
0.370179,,,,,,
0.37018,,,,,,
0.370295,,,,,,
0.370409,,,,,,
0.370524,,,,,,
0.370648,,,,,,
0.370803,,,,,,
0.370909,,,,,,
0.371047,,,,,,
0.371207,,,,,,
0.371332,,,,,,
0.371502,,,,,,
0.371503,,,,,,
0.371643,,,,,,
0.371786,,,,,,
0.371787,,,,,,
0.372002,,,,,,
0.372197,,,,,,
0.372391,,,,,,
0.372747,,,,,,
0.373103,,,,,,
0.374383,,,,,,
0.374734,,,,,,
0.374735,,,,,,
0.37509,,,,,,
0.375294,,,,,,
0.375296,,,,,,
0.375297,,,,,,
0.3753,,,,,,
0.375482,,,,,,
0.3757,,,,,,
0.375701,,,,,,
0.375845,,,,,,
0.37599,,,,,,
0.375991,,,,,,
0.375997,,,,,,
0.375998,,,,,,
0.375999,,,,,,
0.376,,,,,,
0.376001,,,,,,
0.376002,,,,,,
0.376003,,,,,,
0.376004,,,,,,
0.376005,,,,,,
0.376006,,,,,,
0.376007,,,,,,
0.376022,,,,,,
0.376023,,,,,,
0.37603,,,,,,
0.376031,,,,,,
0.376033,,,,,,
0.376034,,,,,,
0.376036,,,,,,
0.376037,,,,,,
0.376042,,,,,,
0.376043,,,,,,
0.376156,,,,,,
0.376281,,,,,,
0.37644,,,,,,
0.37658,,,,,,
0.376692,,,,,,
0.37684,,,,,,
0.376966,,,,,,
0.377117,,,,,,
0.377118,,,,,,
0.37712,,,,,,
0.377121,,,,,,
0.377122,,,,,,
0.377124,,,,,,
0.377125,,,,,,
0.377127,,,,,,
0.377128,,,,,,
0.377131,,,,,,
0.377132,,,,,,
0.377134,,,,,,
0.377135,,,,,,
0.37715,,,,,,
0.377151,,,,,,
0.37717,,,,,,
0.377171,,,,,,
0.377175,,,,,,
0.377176,,,,,,
0.37718,,,,,,
0.377181,,,,,,
0.377185,,,,,,
0.377186,,,,,,
0.377187,,,,,,
0.377207,,,,,,
0.377314,,,,,,
0.377417,,,,,,
0.377539,,,,,,
0.377652,,,,,,
0.377769,,,,,,
0.377876,,,,,,
0.377979,,,,,,
0.377985,,,,,,
0.377986,,,,,,
0.377988,,,,,,
0.377989,,,,,,
0.37799,,,,,,
0.377992,,,,,,
0.378084,,,,,,
0.37821,,,,,,
0.378315,,,,,,
0.378412,,,,,,
0.378535,,,,,,
0.378634,,,,,,
0.378743,,,,,,
0.378845,,,,,,
0.378846,,,,,,
0.378869,,,,,,
0.378876,,,,,,
0.378881,,,,,,
0.37889,,,,,,
0.378893,,,,,,
0.378946,,,,,,
0.378947,,,,,,
0.378959,,,,,,
0.37896,,,,,,
0.378961,,,,,,
0.378971,,,,,,
0.378973,,,,,,
0.37898,,,,,,
0.378988,,,,,,
0.379057,,,,,,
0.37916,,,,,,
0.379279,,,,,,
0.379384,,,,,,
0.379496,,,,,,
0.379616,,,,,,
0.379695,,,,,,
0.379812,,,,,,
0.379951,,,,,,
0.380052,,,,,,
0.380181,,,,,,
0.380293,,,,,,
0.380411,,,,,,
0.38054,,,,,,
0.38067,,,,,,
0.380671,,,,,,
0.380672,,,,,,
0.380673,,,,,,
0.380674,,,,,,
0.380675,,,,,,
0.380676,,,,,,
0.380802,,,,,,
0.38095,,,,,,
0.380951,,,,,,
0.381098,,,,,,
0.381279,,,,,,
0.381426,,,,,,
0.381631,,,,,,
0.381845,,,,,,
0.382087,,,,,,
0.382408,,,,,,
0.382765,,,,,,
0.383252,,,,,,
0.384254,,,,,,
0.384255,,,,,,
0.384256,,,,,,
0.384258,,,,,,
0.384819,,,,,,
0.384821,,,,,,
0.385256,,,,,,
0.385417,,,,,,
0.385554,,,,,,
0.385717,,,,,,
0.385877,,,,,,
0.386017,,,,,,
0.386173,,,,,,
0.386295,,,,,,
0.386452,,,,,,
0.386578,,,,,,
0.386715,,,,,,
0.386845,,,,,,
0.38697,,,,,,
0.387102,,,,,,
0.387209,,,,,,
0.387334,,,,,,
0.387451,,,,,,
0.387554,,,,,,
0.38769,,,,,,
0.38781,,,,,,
0.387886,,,,,,
0.388006,,,,,,
0.388116,,,,,,
0.388219,,,,,,
0.388336,,,,,,
0.38844,,,,,,
0.388542,,,,,,
0.388653,,,,,,
0.388762,,,,,,
0.388858,,,,,,
0.38896,,,,,,
0.38908,,,,,,
0.389179,,,,,,
0.389289,,,,,,
0.389409,,,,,,
0.389514,,,,,,
0.389613,,,,,,
0.389727,,,,,,
0.389838,,,,,,
0.389957,,,,,,
0.390076,,,,,,
0.390179,,,,,,
0.390294,,,,,,
0.390407,,,,,,
0.390523,,,,,,
0.390646,,,,,,
0.390802,,,,,,
0.390908,,,,,,
0.391047,,,,,,
0.391204,,,,,,
0.391205,,,,,,
0.391331,,,,,,
0.391502,,,,,,
0.391642,,,,,,
0.391786,,,,,,
0.392,,,,,,
0.392196,,,,,,
0.392392,,,,,,
0.392743,,,,,,
0.392744,,,,,,
0.393098,,,,,,
0.394385,,,,,,
0.394731,,,,,,
0.394733,,,,,,
0.395089,,,,,,
0.395292,,,,,,
0.395293,,,,,,
0.395481,,,,,,
0.395698,,,,,,
0.395844,,,,,,
0.395983,,,,,,
0.395984,,,,,,
0.39599,,,,,,
0.395991,,,,,,
0.395992,,,,,,
0.395993,,,,,,
0.395994,,,,,,
0.395995,,,,,,
0.396,,,,,,
0.396001,,,,,,
0.396002,,,,,,
0.396007,,,,,,
0.396008,,,,,,
0.396009,,,,,,
0.39601,,,,,,
0.396023,,,,,,
0.396024,,,,,,
0.396035,,,,,,
0.396036,,,,,,
0.39604,,,,,,
0.396156,,,,,,
0.396279,,,,,,
0.396438,,,,,,
0.396579,,,,,,
0.39658,,,,,,
0.396692,,,,,,
0.396839,,,,,,
0.396965,,,,,,
0.39708,,,,,,
0.397081,,,,,,
0.397083,,,,,,
0.397084,,,,,,
0.397117,,,,,,
0.397118,,,,,,
0.39712,,,,,,
0.397121,,,,,,
0.397122,,,,,,
0.397124,,,,,,
0.397125,,,,,,
0.397128,,,,,,
0.397129,,,,,,
0.397131,,,,,,
0.397132,,,,,,
0.397138,,,,,,
0.397139,,,,,,
0.397163,,,,,,
0.397164,,,,,,
0.397172,,,,,,
0.397173,,,,,,
0.397177,,,,,,
0.397178,,,,,,
0.397182,,,,,,
0.397184,,,,,,
0.397188,,,,,,
0.397189,,,,,,
0.39719,,,,,,
0.397191,,,,,,
0.397208,,,,,,
0.397313,,,,,,
0.397417,,,,,,
0.397538,,,,,,
0.397539,,,,,,
0.397651,,,,,,
0.397768,,,,,,
0.397876,,,,,,
0.39798,,,,,,
0.397987,,,,,,
0.39799,,,,,,
0.397991,,,,,,
0.397993,,,,,,
0.397994,,,,,,
0.398083,,,,,,
0.398211,,,,,,
0.398315,,,,,,
0.398411,,,,,,
0.398412,,,,,,
0.398534,,,,,,
0.398633,,,,,,
0.398634,,,,,,
0.398743,,,,,,
0.398849,,,,,,
0.39885,,,,,,
0.39886,,,,,,
0.398863,,,,,,
0.398873,,,,,,
0.39888,,,,,,
0.398884,,,,,,
0.398893,,,,,,
0.398895,,,,,,
0.398923,,,,,,
0.398924,,,,,,
0.398935,,,,,,
0.398936,,,,,,
0.398947,,,,,,
0.398948,,,,,,
0.398949,,,,,,
0.39896,,,,,,
0.398961,,,,,,
0.398962,,,,,,
0.398963,,,,,,
0.398972,,,,,,
0.398973,,,,,,
0.398974,,,,,,
0.398975,,,,,,
0.39898,,,,,,
0.398982,,,,,,
0.398983,,,,,,
0.398989,,,,,,
0.399057,,,,,,
0.39916,,,,,,
0.399278,,,,,,
0.399384,,,,,,
0.399496,,,,,,
0.399616,,,,,,
0.399695,,,,,,
0.399811,,,,,,
0.399951,,,,,,
0.400052,,,,,,
0.400181,,,,,,
0.400294,,,,,,
0.400411,,,,,,
0.400539,,,,,,
0.40067,,,,,,
0.400671,,,,,,
0.400673,,,,,,
0.400674,,,,,,
0.400675,,,,,,
0.400802,,,,,,
0.400951,,,,,,
0.401098,,,,,,
0.401278,,,,,,
0.401426,,,,,,
0.401631,,,,,,
0.401845,,,,,,
0.402088,,,,,,
0.402407,,,,,,
0.402766,,,,,,
0.403254,,,,,,
0.40424,,,,,,
0.404243,,,,,,
0.404824,,,,,,
0.404825,,,,,,
0.404826,,,,,,
0.404827,,,,,,
0.405257,,,,,,
0.405416,,,,,,
0.405553,,,,,,
0.405719,,,,,,
0.405877,,,,,,
0.406018,,,,,,
0.406172,,,,,,
0.406295,,,,,,
0.406451,,,,,,
0.406577,,,,,,
0.406714,,,,,,
0.406844,,,,,,
0.406969,,,,,,
0.407101,,,,,,
0.407209,,,,,,
0.407333,,,,,,
0.407451,,,,,,
0.407553,,,,,,
0.407689,,,,,,
0.40781,,,,,,
0.407885,,,,,,
0.408006,,,,,,
0.408115,,,,,,
0.408218,,,,,,
0.408335,,,,,,
0.408439,,,,,,
0.408542,,,,,,
0.408652,,,,,,
0.408762,,,,,,
0.408858,,,,,,
0.40896,,,,,,
0.40908,,,,,,
0.409179,,,,,,
0.409288,,,,,,
0.409409,,,,,,
0.409513,,,,,,
0.409614,,,,,,
0.409727,,,,,,
0.409838,,,,,,
0.409957,,,,,,
0.410076,,,,,,
0.410179,,,,,,
0.410294,,,,,,
0.410408,,,,,,
0.410524,,,,,,
0.410646,,,,,,
0.410803,,,,,,
0.410907,,,,,,
0.410908,,,,,,
0.411046,,,,,,
0.411206,,,,,,
0.411332,,,,,,
0.411503,,,,,,
0.411643,,,,,,
0.411789,,,,,,
0.412001,,,,,,
0.412197,,,,,,
0.412392,,,,,,
0.412749,,,,,,
0.413097,,,,,,
0.414382,,,,,,
0.414731,,,,,,
0.415086,,,,,,
0.415291,,,,,,
0.415292,,,,,,
0.415479,,,,,,
0.415699,,,,,,
0.4157,,,,,,
0.415842,,,,,,
0.415992,,,,,,
0.415993,,,,,,
0.415994,,,,,,
0.415995,,,,,,
0.415998,,,,,,
0.416001,,,,,,
0.416002,,,,,,
0.416003,,,,,,
0.416004,,,,,,
0.416021,,,,,,
0.416022,,,,,,
0.416024,,,,,,
0.416025,,,,,,
0.416027,,,,,,
0.416028,,,,,,
0.41603,,,,,,
0.416031,,,,,,
0.416036,,,,,,
0.416155,,,,,,
0.416279,,,,,,
0.416437,,,,,,
0.416578,,,,,,
0.41658,,,,,,
0.416581,,,,,,
0.416582,,,,,,
0.416691,,,,,,
0.416839,,,,,,
0.416964,,,,,,
0.417087,,,,,,
0.417088,,,,,,
0.417113,,,,,,
0.417114,,,,,,
0.417118,,,,,,
0.417119,,,,,,
0.417121,,,,,,
0.417123,,,,,,
0.417124,,,,,,
0.417126,,,,,,
0.417127,,,,,,
0.41713,,,,,,
0.417131,,,,,,
0.417133,,,,,,
0.417134,,,,,,
0.417157,,,,,,
0.417158,,,,,,
0.417161,,,,,,
0.417162,,,,,,
0.41717,,,,,,
0.417171,,,,,,
0.417175,,,,,,
0.417176,,,,,,
0.417186,,,,,,
0.417206,,,,,,
0.417313,,,,,,
0.417416,,,,,,
0.417538,,,,,,
0.417651,,,,,,
0.417767,,,,,,
0.417876,,,,,,
0.417977,,,,,,
0.417978,,,,,,
0.417979,,,,,,
0.41798,,,,,,
0.417981,,,,,,
0.417991,,,,,,
0.417992,,,,,,
0.418083,,,,,,
0.41821,,,,,,
0.418314,,,,,,
0.418411,,,,,,
0.418534,,,,,,
0.418633,,,,,,
0.418742,,,,,,
0.418862,,,,,,
0.418864,,,,,,
0.418874,,,,,,
0.418881,,,,,,
0.418885,,,,,,
0.418894,,,,,,
0.418896,,,,,,
0.418937,,,,,,
0.418938,,,,,,
0.418949,,,,,,
0.418951,,,,,,
0.418962,,,,,,
0.418963,,,,,,
0.418965,,,,,,
0.418973,,,,,,
0.418974,,,,,,
0.418976,,,,,,
0.418977,,,,,,
0.418984,,,,,,
0.419057,,,,,,
0.41916,,,,,,
0.419278,,,,,,
0.419384,,,,,,
0.419496,,,,,,
0.419615,,,,,,
0.419694,,,,,,
0.419812,,,,,,
0.41995,,,,,,
0.420052,,,,,,
0.420182,,,,,,
0.420294,,,,,,
0.420411,,,,,,
0.42054,,,,,,
0.42067,,,,,,
0.420671,,,,,,
0.420676,,,,,,
0.420802,,,,,,
0.42095,,,,,,
0.421098,,,,,,
0.421278,,,,,,
0.421425,,,,,,
0.421631,,,,,,
0.421844,,,,,,
0.422089,,,,,,
0.422408,,,,,,
0.422765,,,,,,
0.423257,,,,,,
0.424256,,,,,,
0.424258,,,,,,
0.424814,,,,,,
0.424816,,,,,,
0.424817,,,,,,
0.425258,,,,,,
0.425418,,,,,,
0.425554,,,,,,
0.425719,,,,,,
0.425878,,,,,,
0.426017,,,,,,
0.426172,,,,,,
0.426294,,,,,,
0.426451,,,,,,
0.426577,,,,,,
0.426714,,,,,,
0.426844,,,,,,
0.426968,,,,,,
0.427102,,,,,,
0.427209,,,,,,
0.427334,,,,,,
0.427451,,,,,,
0.427553,,,,,,
0.42769,,,,,,
0.42781,,,,,,
0.427886,,,,,,
0.428006,,,,,,
0.428116,,,,,,
0.428219,,,,,,
0.428336,,,,,,
0.428439,,,,,,
0.42844,,,,,,
0.428544,,,,,,
0.428652,,,,,,
0.428653,,,,,,
0.428762,,,,,,
0.428858,,,,,,
0.428961,,,,,,
0.42908,,,,,,
0.429179,,,,,,
0.429288,,,,,,
0.429408,,,,,,
0.429514,,,,,,
0.429613,,,,,,
0.429727,,,,,,
0.429839,,,,,,
0.429958,,,,,,
0.430077,,,,,,
0.430179,,,,,,
0.430295,,,,,,
0.430408,,,,,,
0.430524,,,,,,
0.430646,,,,,,
0.430803,,,,,,
0.430909,,,,,,
0.431048,,,,,,
0.431206,,,,,,
0.431333,,,,,,
0.431503,,,,,,
0.431643,,,,,,
0.431789,,,,,,
0.432003,,,,,,
0.4322,,,,,,
0.432395,,,,,,
0.43275,,,,,,
0.432751,,,,,,
0.433104,,,,,,
0.434373,,,,,,
0.434727,,,,,,
0.435085,,,,,,
0.43529,,,,,,
0.435292,,,,,,
0.435293,,,,,,
0.435479,,,,,,
0.435697,,,,,,
0.435698,,,,,,
0.435842,,,,,,
0.435986,,,,,,
0.435987,,,,,,
0.435993,,,,,,
0.435994,,,,,,
0.435995,,,,,,
0.435996,,,,,,
0.435997,,,,,,
0.435998,,,,,,
0.435999,,,,,,
0.436,,,,,,
0.436001,,,,,,
0.436021,,,,,,
0.436022,,,,,,
0.436036,,,,,,
0.436037,,,,,,
0.43604,,,,,,
0.436041,,,,,,
0.436044,,,,,,
0.436154,,,,,,
0.436279,,,,,,
0.436437,,,,,,
0.436579,,,,,,
0.43658,,,,,,
0.436581,,,,,,
0.436582,,,,,,
0.436691,,,,,,
0.436839,,,,,,
0.436965,,,,,,
0.437085,,,,,,
0.437086,,,,,,
0.437094,,,,,,
0.437095,,,,,,
0.437096,,,,,,
0.437097,,,,,,
0.437114,,,,,,
0.437115,,,,,,
0.437117,,,,,,
0.437118,,,,,,
0.43712,,,,,,
0.437121,,,,,,
0.437123,,,,,,
0.437124,,,,,,
0.437125,,,,,,
0.437127,,,,,,
0.437129,,,,,,
0.437131,,,,,,
0.437132,,,,,,
0.437134,,,,,,
0.437135,,,,,,
0.437154,,,,,,
0.437155,,,,,,
0.437158,,,,,,
0.437159,,,,,,
0.437162,,,,,,
0.437163,,,,,,
0.437171,,,,,,
0.437172,,,,,,
0.437181,,,,,,
0.437182,,,,,,
0.437184,,,,,,
0.437205,,,,,,
0.437313,,,,,,
0.437417,,,,,,
0.437538,,,,,,
0.437651,,,,,,
0.437768,,,,,,
0.437876,,,,,,
0.43798,,,,,,
0.437987,,,,,,
0.43799,,,,,,
0.438083,,,,,,
0.43821,,,,,,
0.438315,,,,,,
0.438412,,,,,,
0.438534,,,,,,
0.438634,,,,,,
0.438743,,,,,,
0.438848,,,,,,
0.438849,,,,,,
0.438867,,,,,,
0.438874,,,,,,
0.43888,,,,,,
0.438889,,,,,,
0.438892,,,,,,
0.438945,,,,,,
0.438946,,,,,,
0.438947,,,,,,
0.438958,,,,,,
0.438959,,,,,,
0.43896,,,,,,
0.438961,,,,,,
0.438971,,,,,,
0.438972,,,,,,
0.438974,,,,,,
0.438978,,,,,,
0.438985,,,,,,
0.439057,,,,,,
0.439161,,,,,,
0.439279,,,,,,
0.439384,,,,,,
0.439496,,,,,,
0.439616,,,,,,
0.439694,,,,,,
0.439811,,,,,,
0.43995,,,,,,
0.439951,,,,,,
0.440052,,,,,,
0.440182,,,,,,
0.440294,,,,,,
0.440412,,,,,,
0.44054,,,,,,
0.44067,,,,,,
0.440671,,,,,,
0.440672,,,,,,
0.440673,,,,,,
0.440674,,,,,,
0.440802,,,,,,
0.440951,,,,,,
0.441098,,,,,,
0.441278,,,,,,
0.441426,,,,,,
0.441631,,,,,,
0.441845,,,,,,
0.442087,,,,,,
0.442407,,,,,,
0.442765,,,,,,
0.443252,,,,,,
0.444267,,,,,,
0.444269,,,,,,
0.44481,,,,,,
0.444811,,,,,,
0.444812,,,,,,
0.445258,,,,,,
0.445416,,,,,,
0.445555,,,,,,
0.445719,,,,,,
0.445877,,,,,,
0.446017,,,,,,
0.446173,,,,,,
0.446295,,,,,,
0.446451,,,,,,
0.446577,,,,,,
0.446715,,,,,,
0.446845,,,,,,
0.44697,,,,,,
0.447102,,,,,,
0.44721,,,,,,
0.447334,,,,,,
0.447451,,,,,,
0.447554,,,,,,
0.44769,,,,,,
0.44781,,,,,,
0.447886,,,,,,
0.448006,,,,,,
0.448116,,,,,,
0.448219,,,,,,
0.448336,,,,,,
0.44844,,,,,,
0.448543,,,,,,
0.448653,,,,,,
0.448763,,,,,,
0.448858,,,,,,
0.448961,,,,,,
0.44908,,,,,,
0.449081,,,,,,
0.44918,,,,,,
0.44929,,,,,,
0.449409,,,,,,
0.449514,,,,,,
0.449614,,,,,,
0.449728,,,,,,
0.44984,,,,,,
0.449958,,,,,,
0.450077,,,,,,
0.45018,,,,,,
0.450295,,,,,,
0.450409,,,,,,
0.450525,,,,,,
0.450647,,,,,,
0.450648,,,,,,
0.450803,,,,,,
0.45091,,,,,,
0.451048,,,,,,
0.451207,,,,,,
0.451334,,,,,,
0.451503,,,,,,
0.451643,,,,,,
0.451787,,,,,,
0.452002,,,,,,
0.4522,,,,,,
0.452395,,,,,,
0.452748,,,,,,
0.453101,,,,,,
0.454379,,,,,,
0.454728,,,,,,
0.454731,,,,,,
0.455089,,,,,,
0.455293,,,,,,
0.455294,,,,,,
0.455295,,,,,,
0.455482,,,,,,
0.4557,,,,,,
0.455844,,,,,,
0.455993,,,,,,
0.455994,,,,,,
0.455995,,,,,,
0.455996,,,,,,
0.455997,,,,,,
0.455998,,,,,,
0.455999,,,,,,
0.456,,,,,,
0.456001,,,,,,
0.456002,,,,,,
0.456003,,,,,,
0.456004,,,,,,
0.456005,,,,,,
0.456013,,,,,,
0.456014,,,,,,
0.45603,,,,,,
0.456031,,,,,,
0.456033,,,,,,
0.456034,,,,,,
0.45604,,,,,,
0.456041,,,,,,
0.456043,,,,,,
0.456156,,,,,,
0.45628,,,,,,
0.456438,,,,,,
0.456579,,,,,,
0.45658,,,,,,
0.456693,,,,,,
0.45684,,,,,,
0.456965,,,,,,
0.45712,,,,,,
0.457122,,,,,,
0.457123,,,,,,
0.457125,,,,,,
0.457126,,,,,,
0.457135,,,,,,
0.457136,,,,,,
0.457155,,,,,,
0.457156,,,,,,
0.457163,,,,,,
0.457164,,,,,,
0.457172,,,,,,
0.457173,,,,,,
0.457182,,,,,,
0.457183,,,,,,
0.457187,,,,,,
0.457207,,,,,,
0.457313,,,,,,
0.457417,,,,,,
0.45754,,,,,,
0.457652,,,,,,
0.457768,,,,,,
0.457769,,,,,,
0.457877,,,,,,
0.457979,,,,,,
0.457985,,,,,,
0.457986,,,,,,
0.457992,,,,,,
0.457993,,,,,,
0.458084,,,,,,
0.458211,,,,,,
0.458315,,,,,,
0.458412,,,,,,
0.458535,,,,,,
0.458634,,,,,,
0.458743,,,,,,
0.458847,,,,,,
0.458848,,,,,,
0.45885,,,,,,
0.458851,,,,,,
0.458865,,,,,,
0.458872,,,,,,
0.458879,,,,,,
0.458887,,,,,,
0.458891,,,,,,
0.458901,,,,,,
0.458902,,,,,,
0.458933,,,,,,
0.458934,,,,,,
0.458945,,,,,,
0.458946,,,,,,
0.458947,,,,,,
0.458959,,,,,,
0.45896,,,,,,
0.458961,,,,,,
0.458971,,,,,,
0.458972,,,,,,
0.458974,,,,,,
0.45898,,,,,,
0.458987,,,,,,
0.459057,,,,,,
0.459058,,,,,,
0.459161,,,,,,
0.459279,,,,,,
0.459384,,,,,,
0.459496,,,,,,
0.459615,,,,,,
0.459694,,,,,,
0.459812,,,,,,
0.459951,,,,,,
0.460052,,,,,,
0.460181,,,,,,
0.460293,,,,,,
0.460411,,,,,,
0.460539,,,,,,
0.460674,,,,,,
0.460675,,,,,,
0.460676,,,,,,
0.460802,,,,,,
0.46095,,,,,,
0.461097,,,,,,
0.461278,,,,,,
0.461425,,,,,,
0.461631,,,,,,
0.461844,,,,,,
0.462089,,,,,,
0.46209,,,,,,
0.462406,,,,,,
0.462764,,,,,,
0.463249,,,,,,
0.464248,,,,,,
0.46425,,,,,,
0.464817,,,,,,
0.464819,,,,,,
0.465256,,,,,,
0.465418,,,,,,
0.465553,,,,,,
0.465718,,,,,,
0.465878,,,,,,
0.466017,,,,,,
0.466172,,,,,,
0.466295,,,,,,
0.466452,,,,,,
0.466577,,,,,,
0.466714,,,,,,
0.466845,,,,,,
0.46697,,,,,,
0.467102,,,,,,
0.46721,,,,,,
0.467334,,,,,,
0.467451,,,,,,
0.467554,,,,,,
0.46769,,,,,,
0.46781,,,,,,
0.467885,,,,,,
0.468006,,,,,,
0.468007,,,,,,
0.468117,,,,,,
0.468219,,,,,,
0.468337,,,,,,
0.46844,,,,,,
0.468544,,,,,,
0.468653,,,,,,
0.468764,,,,,,
0.468858,,,,,,
0.46896,,,,,,
0.46908,,,,,,
0.469179,,,,,,
0.469289,,,,,,
0.469409,,,,,,
0.469514,,,,,,
0.469614,,,,,,
0.469728,,,,,,
0.46984,,,,,,
0.469957,,,,,,
0.470077,,,,,,
0.470179,,,,,,
0.470295,,,,,,
0.470408,,,,,,
0.470409,,,,,,
0.470524,,,,,,
0.470647,,,,,,
0.470802,,,,,,
0.470908,,,,,,
0.471047,,,,,,
0.471205,,,,,,
0.471333,,,,,,
0.471502,,,,,,
0.471642,,,,,,
0.471787,,,,,,
0.472002,,,,,,
0.472198,,,,,,
0.472199,,,,,,
0.472391,,,,,,
0.472746,,,,,,
0.473098,,,,,,
0.474385,,,,,,
0.474733,,,,,,
0.474735,,,,,,
0.47509,,,,,,
0.475293,,,,,,
0.4753,,,,,,
0.475483,,,,,,
0.4757,,,,,,
0.475701,,,,,,
0.475845,,,,,,
0.475993,,,,,,
0.475994,,,,,,
0.475995,,,,,,
0.475996,,,,,,
0.475997,,,,,,
0.475998,,,,,,
0.476001,,,,,,
0.476004,,,,,,
0.476005,,,,,,
0.476006,,,,,,
0.476007,,,,,,
0.476019,,,,,,
0.47602,,,,,,
0.47604,,,,,,
0.476041,,,,,,
0.476042,,,,,,
0.476156,,,,,,
0.47628,,,,,,
0.476438,,,,,,
0.47658,,,,,,
0.476692,,,,,,
0.47684,,,,,,
0.476965,,,,,,
0.477115,,,,,,
0.477116,,,,,,
0.477118,,,,,,
0.477119,,,,,,
0.477121,,,,,,
0.477122,,,,,,
0.477124,,,,,,
0.477125,,,,,,
0.477126,,,,,,
0.477132,,,,,,
0.477133,,,,,,
0.477164,,,,,,
0.477165,,,,,,
0.477173,,,,,,
0.477174,,,,,,
0.477183,,,,,,
0.477184,,,,,,
0.477189,,,,,,
0.47719,,,,,,
0.477193,,,,,,
0.47721,,,,,,
0.477314,,,,,,
0.477417,,,,,,
0.47754,,,,,,
0.477652,,,,,,
0.477768,,,,,,
0.477877,,,,,,
0.47798,,,,,,
0.477991,,,,,,
0.477992,,,,,,
0.478084,,,,,,
0.47821,,,,,,
0.478314,,,,,,
0.478412,,,,,,
0.478534,,,,,,
0.478634,,,,,,
0.478743,,,,,,
0.478849,,,,,,
0.47885,,,,,,
0.478861,,,,,,
0.478862,,,,,,
0.478873,,,,,,
0.47888,,,,,,
0.478885,,,,,,
0.478894,,,,,,
0.478896,,,,,,
0.478924,,,,,,
0.478925,,,,,,
0.478935,,,,,,
0.478936,,,,,,
0.478948,,,,,,
0.478949,,,,,,
0.47895,,,,,,
0.478961,,,,,,
0.478963,,,,,,
0.478972,,,,,,
0.478973,,,,,,
0.478975,,,,,,
0.478978,,,,,,
0.478985,,,,,,
0.479057,,,,,,
0.47916,,,,,,
0.479278,,,,,,
0.479383,,,,,,
0.479496,,,,,,
0.479615,,,,,,
0.479694,,,,,,
0.479811,,,,,,
0.47995,,,,,,
0.480052,,,,,,
0.480181,,,,,,
0.480293,,,,,,
0.480411,,,,,,
0.480539,,,,,,
0.480672,,,,,,
0.480673,,,,,,
0.480674,,,,,,
0.480802,,,,,,
0.48095,,,,,,
0.481097,,,,,,
0.481277,,,,,,
0.481425,,,,,,
0.481631,,,,,,
0.481844,,,,,,
0.482088,,,,,,
0.482089,,,,,,
0.482404,,,,,,
0.482763,,,,,,
0.483254,,,,,,
0.484248,,,,,,
0.484251,,,,,,
0.484817,,,,,,
0.484818,,,,,,
0.484819,,,,,,
0.485257,,,,,,
0.485418,,,,,,
0.485553,,,,,,
0.485718,,,,,,
0.485877,,,,,,
0.486018,,,,,,
0.486172,,,,,,
0.486295,,,,,,
0.486451,,,,,,
0.486577,,,,,,
0.486714,,,,,,
0.486844,,,,,,
0.486969,,,,,,
0.487101,,,,,,
0.48721,,,,,,
0.487333,,,,,,
0.487451,,,,,,
0.487553,,,,,,
0.487691,,,,,,
0.48781,,,,,,
0.487885,,,,,,
0.488006,,,,,,
0.488116,,,,,,
0.488218,,,,,,
0.488335,,,,,,
0.488439,,,,,,
0.488542,,,,,,
0.488653,,,,,,
0.488762,,,,,,
0.488858,,,,,,
0.488959,,,,,,
0.48908,,,,,,
0.489179,,,,,,
0.489289,,,,,,
0.489408,,,,,,
0.489513,,,,,,
0.489614,,,,,,
0.489726,,,,,,
0.489727,,,,,,
0.489837,,,,,,
0.489957,,,,,,
0.490076,,,,,,
0.490178,,,,,,
0.490294,,,,,,
0.490407,,,,,,
0.490523,,,,,,
0.490645,,,,,,
0.490646,,,,,,
0.490801,,,,,,
0.490907,,,,,,
0.491045,,,,,,
0.491205,,,,,,
0.491331,,,,,,
0.491501,,,,,,
0.491642,,,,,,
0.491786,,,,,,
0.492001,,,,,,
0.492196,,,,,,
0.492389,,,,,,
0.492744,,,,,,
0.493095,,,,,,
0.494378,,,,,,
0.494379,,,,,,
0.494382,,,,,,
0.49473,,,,,,
0.494731,,,,,,
0.495089,,,,,,
0.495292,,,,,,
0.495479,,,,,,
0.495698,,,,,,
0.495844,,,,,,
0.495991,,,,,,
0.495992,,,,,,
0.495993,,,,,,
0.495994,,,,,,
0.495998,,,,,,
0.495999,,,,,,
0.496,,,,,,
0.496001,,,,,,
0.496002,,,,,,
0.496003,,,,,,
0.496004,,,,,,
0.496005,,,,,,
0.496006,,,,,,
0.496018,,,,,,
0.496019,,,,,,
0.496038,,,,,,
0.496039,,,,,,
0.496041,,,,,,
0.496042,,,,,,
0.496044,,,,,,
0.496045,,,,,,
0.496155,,,,,,
0.496279,,,,,,
0.496438,,,,,,
0.496579,,,,,,
0.49658,,,,,,
0.496691,,,,,,
0.496839,,,,,,
0.496964,,,,,,
0.497091,,,,,,
0.497092,,,,,,
0.497093,,,,,,
0.497094,,,,,,
0.497113,,,,,,
0.497114,,,,,,
0.497116,,,,,,
0.497117,,,,,,
0.497121,,,,,,
0.497123,,,,,,
0.497124,,,,,,
0.497126,,,,,,
0.497127,,,,,,
0.497133,,,,,,
0.497134,,,,,,
0.497165,,,,,,
0.497166,,,,,,
0.49717,,,,,,
0.497171,,,,,,
0.49718,,,,,,
0.497181,,,,,,
0.497182,,,,,,
0.497183,,,,,,
0.497204,,,,,,
0.497313,,,,,,
0.497417,,,,,,
0.497538,,,,,,
0.497651,,,,,,
0.497767,,,,,,
0.497768,,,,,,
0.497875,,,,,,
0.497979,,,,,,
0.497981,,,,,,
0.497982,,,,,,
0.497989,,,,,,
0.497991,,,,,,
0.497992,,,,,,
0.498083,,,,,,
0.498209,,,,,,
0.498314,,,,,,
0.498411,,,,,,
0.498534,,,,,,
0.498633,,,,,,
0.498743,,,,,,
0.49885,,,,,,
0.498851,,,,,,
0.498861,,,,,,
0.498864,,,,,,
0.498873,,,,,,
0.498881,,,,,,
0.498885,,,,,,
0.498895,,,,,,
0.498896,,,,,,
0.498937,,,,,,
0.498938,,,,,,
0.498949,,,,,,
0.49895,,,,,,
0.498951,,,,,,
0.498962,,,,,,
0.498964,,,,,,
0.498965,,,,,,
0.498972,,,,,,
0.498974,,,,,,
0.498975,,,,,,
0.49898,,,,,,
0.498981,,,,,,
0.498989,,,,,,
0.499057,,,,,,
0.49916,,,,,,
0.499278,,,,,,
0.499383,,,,,,
0.499495,,,,,,
0.499615,,,,,,
0.499694,,,,,,
0.499811,,,,,,
0.49995,,,,,,
0.500052,,,,,,
0.50018,,,,,,
0.500293,,,,,,
0.50041,,,,,,
0.500539,,,,,,
0.500669,,,,,,
0.50067,,,,,,
0.500671,,,,,,
0.500802,,,,,,
0.50095,,,,,,
0.501098,,,,,,
0.501277,,,,,,
0.501278,,,,,,
0.501425,,,,,,
0.501631,,,,,,
0.501844,,,,,,
0.502087,,,,,,
0.502088,,,,,,
0.502405,,,,,,
0.502762,,,,,,
0.502763,,,,,,
0.50325,,,,,,
0.504238,,,,,,
0.504241,,,,,,
0.504832,,,,,,
0.504833,,,,,,
0.504834,,,,,,
0.505257,,,,,,
0.505417,,,,,,
0.505553,,,,,,
0.505718,,,,,,
0.505877,,,,,,
0.506017,,,,,,
0.506172,,,,,,
0.506295,,,,,,
0.50645,,,,,,
0.506577,,,,,,
0.506714,,,,,,
0.506845,,,,,,
0.506969,,,,,,
0.507101,,,,,,
0.507209,,,,,,
0.507333,,,,,,
0.50745,,,,,,
0.507553,,,,,,
0.50769,,,,,,
0.507809,,,,,,
0.507885,,,,,,
0.508006,,,,,,
0.508115,,,,,,
0.508218,,,,,,
0.508335,,,,,,
0.508439,,,,,,
0.508542,,,,,,
0.508652,,,,,,
0.508762,,,,,,
0.508858,,,,,,
0.508958,,,,,,
0.50908,,,,,,
0.509178,,,,,,
0.509288,,,,,,
0.509409,,,,,,
0.509513,,,,,,
0.509614,,,,,,
0.509727,,,,,,
0.509838,,,,,,
0.509957,,,,,,
0.510076,,,,,,
0.510179,,,,,,
0.510294,,,,,,
0.510407,,,,,,
0.510523,,,,,,
0.510646,,,,,,
0.510801,,,,,,
0.510907,,,,,,
0.511046,,,,,,
0.511205,,,,,,
0.511332,,,,,,
0.511501,,,,,,
0.511642,,,,,,
0.511787,,,,,,
0.512003,,,,,,
0.512197,,,,,,
0.512393,,,,,,
0.512748,,,,,,
0.513102,,,,,,
0.51438,,,,,,
0.514729,,,,,,
0.51473,,,,,,
0.515087,,,,,,
0.51529,,,,,,
0.515293,,,,,,
0.515294,,,,,,
0.515296,,,,,,
0.515299,,,,,,
0.515478,,,,,,
0.515696,,,,,,
0.515843,,,,,,
0.515981,,,,,,
0.515982,,,,,,
0.515993,,,,,,
0.515994,,,,,,
0.515995,,,,,,
0.515996,,,,,,
0.515997,,,,,,
0.515998,,,,,,
0.515999,,,,,,
0.516,,,,,,
0.516001,,,,,,
0.516006,,,,,,
0.516007,,,,,,
0.516017,,,,,,
0.516018,,,,,,
0.516022,,,,,,
0.516023,,,,,,
0.516037,,,,,,
0.516038,,,,,,
0.516041,,,,,,
0.516042,,,,,,
0.516044,,,,,,
0.516154,,,,,,
0.516278,,,,,,
0.516437,,,,,,
0.516578,,,,,,
0.516691,,,,,,
0.516838,,,,,,
0.516839,,,,,,
0.516963,,,,,,
0.517085,,,,,,
0.517086,,,,,,
0.517108,,,,,,
0.517109,,,,,,
0.517116,,,,,,
0.517117,,,,,,
0.517119,,,,,,
0.51712,,,,,,
0.517122,,,,,,
0.517123,,,,,,
0.517125,,,,,,
0.517127,,,,,,
0.517128,,,,,,
0.51713,,,,,,
0.517131,,,,,,
0.51715,,,,,,
0.517151,,,,,,
0.517154,,,,,,
0.517155,,,,,,
0.517158,,,,,,
0.517159,,,,,,
0.517176,,,,,,
0.517177,,,,,,
0.517182,,,,,,
0.517183,,,,,,
0.517188,,,,,,
0.517189,,,,,,
0.517207,,,,,,
0.517312,,,,,,
0.517416,,,,,,
0.517538,,,,,,
0.517651,,,,,,
0.517767,,,,,,
0.517875,,,,,,
0.517977,,,,,,
0.517984,,,,,,
0.517987,,,,,,
0.517988,,,,,,
0.517989,,,,,,
0.518082,,,,,,
0.518209,,,,,,
0.518313,,,,,,
0.518411,,,,,,
0.518534,,,,,,
0.518633,,,,,,
0.518742,,,,,,
0.518849,,,,,,
0.51885,,,,,,
0.518868,,,,,,
0.518875,,,,,,
0.51888,,,,,,
0.518889,,,,,,
0.518891,,,,,,
0.518901,,,,,,
0.518903,,,,,,
0.518931,,,,,,
0.518932,,,,,,
0.518945,,,,,,
0.518946,,,,,,
0.518957,,,,,,
0.518959,,,,,,
0.51897,,,,,,
0.518973,,,,,,
0.518978,,,,,,
0.518987,,,,,,
0.519056,,,,,,
0.519159,,,,,,
0.519277,,,,,,
0.519383,,,,,,
0.519495,,,,,,
0.519614,,,,,,
0.519694,,,,,,
0.519811,,,,,,
0.51995,,,,,,
0.520052,,,,,,
0.520181,,,,,,
0.520293,,,,,,
0.520411,,,,,,
0.520539,,,,,,
0.520669,,,,,,
0.52067,,,,,,
0.520671,,,,,,
0.520672,,,,,,
0.520673,,,,,,
0.520802,,,,,,
0.52095,,,,,,
0.521097,,,,,,
0.521278,,,,,,
0.521425,,,,,,
0.521631,,,,,,
0.521844,,,,,,
0.522087,,,,,,
0.522407,,,,,,
0.522762,,,,,,
0.523252,,,,,,
0.524253,,,,,,
0.524256,,,,,,
0.524821,,,,,,
0.524823,,,,,,
0.525256,,,,,,
0.525417,,,,,,
0.525555,,,,,,
0.525719,,,,,,
0.525877,,,,,,
0.526017,,,,,,
0.526172,,,,,,
0.526294,,,,,,
0.526451,,,,,,
0.526576,,,,,,
0.526714,,,,,,
0.526844,,,,,,
0.526969,,,,,,
0.527101,,,,,,
0.527209,,,,,,
0.527333,,,,,,
0.52745,,,,,,
0.527552,,,,,,
0.527689,,,,,,
0.527809,,,,,,
0.527885,,,,,,
0.528006,,,,,,
0.528116,,,,,,
0.528218,,,,,,
0.528336,,,,,,
0.528439,,,,,,
0.52844,,,,,,
0.528542,,,,,,
0.528652,,,,,,
0.528762,,,,,,
0.528857,,,,,,
0.528858,,,,,,
0.52896,,,,,,
0.529079,,,,,,
0.529179,,,,,,
0.529288,,,,,,
0.529409,,,,,,
0.529513,,,,,,
0.529615,,,,,,
0.529727,,,,,,
0.529838,,,,,,
0.529957,,,,,,
0.530077,,,,,,
0.530179,,,,,,
0.530295,,,,,,
0.530408,,,,,,
0.530523,,,,,,
0.530647,,,,,,
0.530802,,,,,,
0.530909,,,,,,
0.531046,,,,,,
0.531206,,,,,,
0.531332,,,,,,
0.531502,,,,,,
0.531643,,,,,,
0.531789,,,,,,
0.532002,,,,,,
0.532199,,,,,,
0.532392,,,,,,
0.532747,,,,,,
0.533107,,,,,,
0.534369,,,,,,
0.53437,,,,,,
0.534373,,,,,,
0.534374,,,,,,
0.534377,,,,,,
0.534728,,,,,,
0.534729,,,,,,
0.534733,,,,,,
0.535085,,,,,,
0.535291,,,,,,
0.535292,,,,,,
0.535293,,,,,,
0.535294,,,,,,
0.535295,,,,,,
0.535296,,,,,,
0.535297,,,,,,
0.535479,,,,,,
0.535697,,,,,,
0.535841,,,,,,
0.535988,,,,,,
0.535989,,,,,,
0.535993,,,,,,
0.535994,,,,,,
0.535995,,,,,,
0.535996,,,,,,
0.535997,,,,,,
0.535998,,,,,,
0.535999,,,,,,
0.536,,,,,,
0.536001,,,,,,
0.536002,,,,,,
0.536003,,,,,,
0.536004,,,,,,
0.536005,,,,,,
0.53603,,,,,,
0.536031,,,,,,
0.536037,,,,,,
0.536038,,,,,,
0.53604,,,,,,
0.536041,,,,,,
0.536042,,,,,,
0.536043,,,,,,
0.536154,,,,,,
0.536279,,,,,,
0.536437,,,,,,
0.536578,,,,,,
0.536691,,,,,,
0.536839,,,,,,
0.536964,,,,,,
0.537114,,,,,,
0.537115,,,,,,
0.537117,,,,,,
0.537118,,,,,,
0.53712,,,,,,
0.537121,,,,,,
0.537122,,,,,,
0.537124,,,,,,
0.537125,,,,,,
0.537128,,,,,,
0.537129,,,,,,
0.537131,,,,,,
0.537132,,,,,,
0.537147,,,,,,
0.537148,,,,,,
0.537155,,,,,,
0.537156,,,,,,
0.537159,,,,,,
0.53716,,,,,,
0.537163,,,,,,
0.537164,,,,,,
0.537172,,,,,,
0.537173,,,,,,
0.537177,,,,,,
0.537178,,,,,,
0.537183,,,,,,
0.537184,,,,,,
0.537189,,,,,,
0.53719,,,,,,
0.537192,,,,,,
0.537193,,,,,,
0.537209,,,,,,
0.537313,,,,,,
0.537417,,,,,,
0.537538,,,,,,
0.537651,,,,,,
0.537768,,,,,,
0.537876,,,,,,
0.537977,,,,,,
0.537978,,,,,,
0.53798,,,,,,
0.537982,,,,,,
0.537983,,,,,,
0.537994,,,,,,
0.538083,,,,,,
0.53821,,,,,,
0.538314,,,,,,
0.538411,,,,,,
0.538535,,,,,,
0.538633,,,,,,
0.538743,,,,,,
0.538844,,,,,,
0.538845,,,,,,
0.53885,,,,,,
0.538851,,,,,,
0.538859,,,,,,
0.538861,,,,,,
0.538862,,,,,,
0.538863,,,,,,
0.538873,,,,,,
0.538881,,,,,,
0.538885,,,,,,
0.538895,,,,,,
0.538897,,,,,,
0.538938,,,,,,
0.538939,,,,,,
0.538951,,,,,,
0.538952,,,,,,
0.538953,,,,,,
0.538964,,,,,,
0.538965,,,,,,
0.538967,,,,,,
0.538975,,,,,,
0.538977,,,,,,
0.538978,,,,,,
0.538979,,,,,,
0.538985,,,,,,
0.539057,,,,,,
0.53916,,,,,,
0.539278,,,,,,
0.539384,,,,,,
0.539495,,,,,,
0.539496,,,,,,
0.539615,,,,,,
0.539694,,,,,,
0.539811,,,,,,
0.53995,,,,,,
0.539951,,,,,,
0.540052,,,,,,
0.540181,,,,,,
0.540293,,,,,,
0.540411,,,,,,
0.54054,,,,,,
0.54067,,,,,,
0.540671,,,,,,
0.540672,,,,,,
0.540802,,,,,,
0.54095,,,,,,
0.541098,,,,,,
0.541278,,,,,,
0.541426,,,,,,
0.541631,,,,,,
0.541844,,,,,,
0.542088,,,,,,
0.542089,,,,,,
0.542406,,,,,,
0.542761,,,,,,
0.542762,,,,,,
0.543255,,,,,,
0.544253,,,,,,
0.544256,,,,,,
0.544817,,,,,,
0.544818,,,,,,
0.544819,,,,,,
0.54482,,,,,,
0.545258,,,,,,
0.545417,,,,,,
0.545555,,,,,,
0.545718,,,,,,
0.545877,,,,,,
0.546017,,,,,,
0.546172,,,,,,
0.546295,,,,,,
0.54645,,,,,,
0.546576,,,,,,
0.546714,,,,,,
0.546844,,,,,,
0.546968,,,,,,
0.547102,,,,,,
0.54721,,,,,,
0.547333,,,,,,
0.54745,,,,,,
0.547553,,,,,,
0.54769,,,,,,
0.547809,,,,,,
0.547885,,,,,,
0.548006,,,,,,
0.548116,,,,,,
0.548218,,,,,,
0.548336,,,,,,
0.54844,,,,,,
0.548543,,,,,,
0.548652,,,,,,
0.548762,,,,,,
0.548858,,,,,,
0.54896,,,,,,
0.54908,,,,,,
0.54918,,,,,,
0.549289,,,,,,
0.549409,,,,,,
0.549514,,,,,,
0.549515,,,,,,
0.549615,,,,,,
0.549727,,,,,,
0.549838,,,,,,
0.549958,,,,,,
0.550077,,,,,,
0.550179,,,,,,
0.550294,,,,,,
0.550409,,,,,,
0.550524,,,,,,
0.550647,,,,,,
0.550803,,,,,,
0.550909,,,,,,
0.551048,,,,,,
0.551207,,,,,,
0.551333,,,,,,
0.551503,,,,,,
0.551643,,,,,,
0.551788,,,,,,
0.552003,,,,,,
0.552199,,,,,,
0.552394,,,,,,
0.552748,,,,,,
0.553101,,,,,,
0.554378,,,,,,
0.554728,,,,,,
0.554729,,,,,,
0.554731,,,,,,
0.555088,,,,,,
0.555292,,,,,,
0.55548,,,,,,
0.555699,,,,,,
0.555843,,,,,,
0.555981,,,,,,
0.555982,,,,,,
0.555991,,,,,,
0.555992,,,,,,
0.555993,,,,,,
0.555994,,,,,,
0.555997,,,,,,
0.555998,,,,,,
0.555999,,,,,,
0.556,,,,,,
0.556001,,,,,,
0.55601,,,,,,
0.556011,,,,,,
0.556014,,,,,,
0.556015,,,,,,
0.556027,,,,,,
0.556028,,,,,,
0.55603,,,,,,
0.556031,,,,,,
0.556033,,,,,,
0.556034,,,,,,
0.556036,,,,,,
0.556037,,,,,,
0.55604,,,,,,
0.556041,,,,,,
0.556044,,,,,,
0.556045,,,,,,
0.556047,,,,,,
0.556048,,,,,,
0.556155,,,,,,
0.55628,,,,,,
0.556437,,,,,,
0.556579,,,,,,
0.556692,,,,,,
0.55684,,,,,,
0.556965,,,,,,
0.557088,,,,,,
0.557089,,,,,,
0.557121,,,,,,
0.557123,,,,,,
0.557124,,,,,,
0.557126,,,,,,
0.557127,,,,,,
0.55713,,,,,,
0.557131,,,,,,
0.557133,,,,,,
0.557134,,,,,,
0.557165,,,,,,
0.557166,,,,,,
0.557185,,,,,,
0.557186,,,,,,
0.557191,,,,,,
0.557209,,,,,,
0.557313,,,,,,
0.557418,,,,,,
0.557539,,,,,,
0.557652,,,,,,
0.557768,,,,,,
0.557876,,,,,,
0.557978,,,,,,
0.557979,,,,,,
0.55798,,,,,,
0.557982,,,,,,
0.557983,,,,,,
0.557994,,,,,,
0.558083,,,,,,
0.55821,,,,,,
0.558315,,,,,,
0.558412,,,,,,
0.558535,,,,,,
0.558634,,,,,,
0.558743,,,,,,
0.558864,,,,,,
0.55887,,,,,,
0.558877,,,,,,
0.558885,,,,,,
0.558889,,,,,,
0.5589,,,,,,
0.558901,,,,,,
0.558943,,,,,,
0.558944,,,,,,
0.558956,,,,,,
0.558957,,,,,,
0.558958,,,,,,
0.558968,,,,,,
0.558969,,,,,,
0.558971,,,,,,
0.558977,,,,,,
0.558978,,,,,,
0.55898,,,,,,
0.558981,,,,,,
0.558988,,,,,,
0.559057,,,,,,
0.55916,,,,,,
0.559278,,,,,,
0.559383,,,,,,
0.559495,,,,,,
0.559496,,,,,,
0.559615,,,,,,
0.559694,,,,,,
0.559811,,,,,,
0.55995,,,,,,
0.560052,,,,,,
0.560181,,,,,,
0.560293,,,,,,
0.560411,,,,,,
0.560539,,,,,,
0.560669,,,,,,
0.56067,,,,,,
0.560672,,,,,,
0.560802,,,,,,
0.56095,,,,,,
0.561097,,,,,,
0.561278,,,,,,
0.561424,,,,,,
0.561631,,,,,,
0.561843,,,,,,
0.562087,,,,,,
0.562088,,,,,,
0.562407,,,,,,
0.562762,,,,,,
0.563253,,,,,,
0.564269,,,,,,
0.564271,,,,,,
0.564272,,,,,,
0.564273,,,,,,
0.56481,,,,,,
0.564811,,,,,,
0.564812,,,,,,
0.564813,,,,,,
0.56526,,,,,,
0.565417,,,,,,
0.565553,,,,,,
0.565717,,,,,,
0.565718,,,,,,
0.565878,,,,,,
0.566017,,,,,,
0.566173,,,,,,
0.566295,,,,,,
0.566451,,,,,,
0.566577,,,,,,
0.566714,,,,,,
0.566844,,,,,,
0.566969,,,,,,
0.567101,,,,,,
0.567209,,,,,,
0.567333,,,,,,
0.567451,,,,,,
0.567553,,,,,,
0.56769,,,,,,
0.567809,,,,,,
0.567885,,,,,,
0.568006,,,,,,
0.568115,,,,,,
0.568218,,,,,,
0.568336,,,,,,
0.56844,,,,,,
0.568542,,,,,,
0.568652,,,,,,
0.568762,,,,,,
0.568858,,,,,,
0.568959,,,,,,
0.56908,,,,,,
0.569179,,,,,,
0.569289,,,,,,
0.569409,,,,,,
0.569514,,,,,,
0.569615,,,,,,
0.569727,,,,,,
0.569838,,,,,,
0.569956,,,,,,
0.570076,,,,,,
0.57018,,,,,,
0.570294,,,,,,
0.570409,,,,,,
0.570523,,,,,,
0.570646,,,,,,
0.570803,,,,,,
0.570908,,,,,,
0.571046,,,,,,
0.571206,,,,,,
0.571332,,,,,,
0.571501,,,,,,
0.571642,,,,,,
0.571787,,,,,,
0.572001,,,,,,
0.572196,,,,,,
0.572391,,,,,,
0.572745,,,,,,
0.573099,,,,,,
0.574382,,,,,,
0.574731,,,,,,
0.574732,,,,,,
0.575089,,,,,,
0.575293,,,,,,
0.575294,,,,,,
0.575295,,,,,,
0.575296,,,,,,
0.575297,,,,,,
0.575301,,,,,,
0.575482,,,,,,
0.575701,,,,,,
0.575845,,,,,,
0.57599,,,,,,
0.575991,,,,,,
0.575992,,,,,,
0.575993,,,,,,
0.575995,,,,,,
0.575996,,,,,,
0.575997,,,,,,
0.575998,,,,,,
0.575999,,,,,,
0.576,,,,,,
0.576001,,,,,,
0.576002,,,,,,
0.576003,,,,,,
0.576009,,,,,,
0.57601,,,,,,
0.576025,,,,,,
0.576026,,,,,,
0.576028,,,,,,
0.576029,,,,,,
0.576031,,,,,,
0.576032,,,,,,
0.576156,,,,,,
0.57628,,,,,,
0.576438,,,,,,
0.576579,,,,,,
0.576693,,,,,,
0.57684,,,,,,
0.576965,,,,,,
0.577115,,,,,,
0.577116,,,,,,
0.577118,,,,,,
0.577119,,,,,,
0.577121,,,,,,
0.577122,,,,,,
0.577123,,,,,,
0.577125,,,,,,
0.577126,,,,,,
0.577129,,,,,,
0.57713,,,,,,
0.577132,,,,,,
0.577133,,,,,,
0.577139,,,,,,
0.57714,,,,,,
0.577159,,,,,,
0.57716,,,,,,
0.577172,,,,,,
0.577173,,,,,,
0.577177,,,,,,
0.577178,,,,,,
0.577183,,,,,,
0.577184,,,,,,
0.577189,,,,,,
0.57719,,,,,,
0.577191,,,,,,
0.577208,,,,,,
0.577314,,,,,,
0.577417,,,,,,
0.577539,,,,,,
0.577651,,,,,,
0.577768,,,,,,
0.577876,,,,,,
0.577978,,,,,,
0.577979,,,,,,
0.57798,,,,,,
0.577981,,,,,,
0.577982,,,,,,
0.577988,,,,,,
0.577989,,,,,,
0.577992,,,,,,
0.578083,,,,,,
0.57821,,,,,,
0.578314,,,,,,
0.578411,,,,,,
0.578534,,,,,,
0.578633,,,,,,
0.578742,,,,,,
0.57886,,,,,,
0.578863,,,,,,
0.578872,,,,,,
0.578881,,,,,,
0.578885,,,,,,
0.578894,,,,,,
0.578896,,,,,,
0.578937,,,,,,
0.578938,,,,,,
0.57895,,,,,,
0.578951,,,,,,
0.578962,,,,,,
0.578963,,,,,,
0.578966,,,,,,
0.578973,,,,,,
0.578977,,,,,,
0.578978,,,,,,
0.578979,,,,,,
0.578985,,,,,,
0.579056,,,,,,
0.57916,,,,,,
0.579277,,,,,,
0.579383,,,,,,
0.579495,,,,,,
0.579614,,,,,,
0.579693,,,,,,
0.579811,,,,,,
0.57995,,,,,,
0.580051,,,,,,
0.580181,,,,,,
0.580292,,,,,,
0.58041,,,,,,
0.580538,,,,,,
0.580669,,,,,,
0.58067,,,,,,
0.580674,,,,,,
0.580801,,,,,,
0.580949,,,,,,
0.581096,,,,,,
0.581277,,,,,,
0.581425,,,,,,
0.58163,,,,,,
0.581843,,,,,,
0.582089,,,,,,
0.582406,,,,,,
0.582765,,,,,,
0.583253,,,,,,
0.584252,,,,,,
0.584254,,,,,,
0.584821,,,,,,
0.584822,,,,,,
0.584823,,,,,,
0.585258,,,,,,
0.585419,,,,,,
0.585554,,,,,,
0.585718,,,,,,
0.585877,,,,,,
0.586016,,,,,,
0.586173,,,,,,
0.586295,,,,,,
0.58645,,,,,,
0.586576,,,,,,
0.586713,,,,,,
0.586844,,,,,,
0.586969,,,,,,
0.587101,,,,,,
0.587209,,,,,,
0.587333,,,,,,
0.58745,,,,,,
0.587553,,,,,,
0.587689,,,,,,
0.587809,,,,,,
0.587884,,,,,,
0.588006,,,,,,
0.588115,,,,,,
0.588218,,,,,,
0.588335,,,,,,
0.588439,,,,,,
0.588542,,,,,,
0.588652,,,,,,
0.588762,,,,,,
0.588858,,,,,,
0.588959,,,,,,
0.589079,,,,,,
0.589178,,,,,,
0.589288,,,,,,
0.589408,,,,,,
0.589513,,,,,,
0.589613,,,,,,
0.589726,,,,,,
0.589838,,,,,,
0.589956,,,,,,
0.590076,,,,,,
0.590178,,,,,,
0.590292,,,,,,
0.590407,,,,,,
0.590521,,,,,,
0.590646,,,,,,
0.590801,,,,,,
0.590907,,,,,,
0.591045,,,,,,
0.591204,,,,,,
0.591331,,,,,,
0.591501,,,,,,
0.59164,,,,,,
0.591785,,,,,,
0.591998,,,,,,
0.592196,,,,,,
0.59239,,,,,,
0.592743,,,,,,
0.592744,,,,,,
0.593094,,,,,,
0.594381,,,,,,
0.594731,,,,,,
0.594732,,,,,,
0.595087,,,,,,
0.595291,,,,,,
0.595292,,,,,,
0.595294,,,,,,
0.595296,,,,,,
0.595298,,,,,,
0.595479,,,,,,
0.595698,,,,,,
0.595843,,,,,,
0.595994,,,,,,
0.595995,,,,,,
0.595996,,,,,,
0.595997,,,,,,
0.595998,,,,,,
0.595999,,,,,,
0.596,,,,,,
0.596001,,,,,,
0.596002,,,,,,
0.596003,,,,,,
0.596004,,,,,,
0.596005,,,,,,
0.596006,,,,,,
0.596026,,,,,,
0.596027,,,,,,
0.596029,,,,,,
0.59603,,,,,,
0.596032,,,,,,
0.596033,,,,,,
0.596035,,,,,,
0.596036,,,,,,
0.596042,,,,,,
0.596043,,,,,,
0.596045,,,,,,
0.596046,,,,,,
0.596154,,,,,,
0.596279,,,,,,
0.596436,,,,,,
0.596578,,,,,,
0.596579,,,,,,
0.596691,,,,,,
0.596838,,,,,,
0.596839,,,,,,
0.596964,,,,,,
0.597088,,,,,,
0.597089,,,,,,
0.59709,,,,,,
0.597091,,,,,,
0.597092,,,,,,
0.597093,,,,,,
0.597117,,,,,,
0.597118,,,,,,
0.59712,,,,,,
0.597122,,,,,,
0.597123,,,,,,
0.597124,,,,,,
0.597126,,,,,,
0.597128,,,,,,
0.597129,,,,,,
0.597131,,,,,,
0.597132,,,,,,
0.597142,,,,,,
0.597143,,,,,,
0.597159,,,,,,
0.59716,,,,,,
0.597163,,,,,,
0.597164,,,,,,
0.597168,,,,,,
0.597169,,,,,,
0.597177,,,,,,
0.597178,,,,,,
0.597179,,,,,,
0.597183,,,,,,
0.597184,,,,,,
0.597185,,,,,,
0.597188,,,,,,
0.597189,,,,,,
0.597206,,,,,,
0.597312,,,,,,
0.597416,,,,,,
0.597537,,,,,,
0.59765,,,,,,
0.597767,,,,,,
0.597875,,,,,,
0.597977,,,,,,
0.597978,,,,,,
0.597979,,,,,,
0.597982,,,,,,
0.597983,,,,,,
0.597995,,,,,,
0.597996,,,,,,
0.598083,,,,,,
0.598209,,,,,,
0.598313,,,,,,
0.59841,,,,,,
0.598411,,,,,,
0.598533,,,,,,
0.598632,,,,,,
0.598742,,,,,,
0.598868,,,,,,
0.598875,,,,,,
0.59888,,,,,,
0.598889,,,,,,
0.598892,,,,,,
0.598901,,,,,,
0.598902,,,,,,
0.598932,,,,,,
0.598933,,,,,,
0.598944,,,,,,
0.598945,,,,,,
0.598956,,,,,,
0.598957,,,,,,
0.598958,,,,,,
0.598959,,,,,,
0.598969,,,,,,
0.598972,,,,,,
0.598978,,,,,,
0.59898,,,,,,
0.598981,,,,,,
0.598988,,,,,,
0.599056,,,,,,
0.59916,,,,,,
0.599277,,,,,,
0.599383,,,,,,
0.599495,,,,,,
0.599614,,,,,,
0.599693,,,,,,
0.599694,,,,,,
0.59981,,,,,,
0.599949,,,,,,
0.600051,,,,,,
0.60018,,,,,,
0.600292,,,,,,
0.60041,,,,,,
0.600539,,,,,,
0.600669,,,,,,
0.60067,,,,,,
0.600671,,,,,,
0.600672,,,,,,
0.600673,,,,,,
0.600801,,,,,,
0.600949,,,,,,
0.601097,,,,,,
0.601277,,,,,,
0.601425,,,,,,
0.60163,,,,,,
0.601843,,,,,,
0.602088,,,,,,
0.602089,,,,,,
0.602406,,,,,,
0.602762,,,,,,
0.60325,,,,,,
0.604253,,,,,,
0.604255,,,,,,
0.60481,,,,,,
0.604811,,,,,,
0.604812,,,,,,
0.604813,,,,,,
0.605257,,,,,,
0.605418,,,,,,
0.605553,,,,,,
0.605717,,,,,,
0.605877,,,,,,
0.606016,,,,,,
0.606171,,,,,,
0.606294,,,,,,
0.60645,,,,,,
0.606576,,,,,,
0.606714,,,,,,
0.606843,,,,,,
0.606844,,,,,,
0.606968,,,,,,
0.6071,,,,,,
0.607209,,,,,,
0.607332,,,,,,
0.60745,,,,,,
0.607552,,,,,,
0.607689,,,,,,
0.607808,,,,,,
0.607809,,,,,,
0.607885,,,,,,
0.608006,,,,,,
0.608115,,,,,,
0.608218,,,,,,
0.608335,,,,,,
0.608439,,,,,,
0.608542,,,,,,
0.608652,,,,,,
0.608761,,,,,,
0.608857,,,,,,
0.608958,,,,,,
0.609079,,,,,,
0.609178,,,,,,
0.609288,,,,,,
0.609407,,,,,,
0.609512,,,,,,
0.609513,,,,,,
0.609613,,,,,,
0.609726,,,,,,
0.609837,,,,,,
0.609956,,,,,,
0.610075,,,,,,
0.610178,,,,,,
0.610293,,,,,,
0.610407,,,,,,
0.610523,,,,,,
0.610645,,,,,,
0.610801,,,,,,
0.610907,,,,,,
0.611046,,,,,,
0.611205,,,,,,
0.611332,,,,,,
0.6115,,,,,,
0.611641,,,,,,
0.611787,,,,,,
0.612001,,,,,,
0.612197,,,,,,
0.61239,,,,,,
0.612744,,,,,,
0.613099,,,,,,
0.614376,,,,,,
0.614728,,,,,,
0.61473,,,,,,
0.615087,,,,,,
0.615291,,,,,,
0.615299,,,,,,
0.61548,,,,,,
0.615697,,,,,,
0.615841,,,,,,
0.615988,,,,,,
0.615989,,,,,,
0.615993,,,,,,
0.615994,,,,,,
0.615995,,,,,,
0.615996,,,,,,
0.615997,,,,,,
0.615998,,,,,,
0.615999,,,,,,
0.616,,,,,,
0.616001,,,,,,
0.616002,,,,,,
0.616003,,,,,,
0.616007,,,,,,
0.616008,,,,,,
0.616026,,,,,,
0.616027,,,,,,
0.616029,,,,,,
0.61603,,,,,,
0.616032,,,,,,
0.616033,,,,,,
0.616039,,,,,,
0.61604,,,,,,
0.616043,,,,,,
0.616154,,,,,,
0.616278,,,,,,
0.616437,,,,,,
0.616577,,,,,,
0.616691,,,,,,
0.616838,,,,,,
0.616839,,,,,,
0.616963,,,,,,
0.617108,,,,,,
0.617109,,,,,,
0.617116,,,,,,
0.617117,,,,,,
0.617119,,,,,,
0.617121,,,,,,
0.617122,,,,,,
0.617124,,,,,,
0.617125,,,,,,
0.617127,,,,,,
0.617128,,,,,,
0.617131,,,,,,
0.617132,,,,,,
0.617163,,,,,,
0.617164,,,,,,
0.617172,,,,,,
0.617173,,,,,,
0.617177,,,,,,
0.617178,,,,,,
0.617182,,,,,,
0.617183,,,,,,
0.617188,,,,,,
0.617189,,,,,,
0.61719,,,,,,
0.617193,,,,,,
0.617209,,,,,,
0.617312,,,,,,
0.617416,,,,,,
0.617537,,,,,,
0.61765,,,,,,
0.617767,,,,,,
0.617875,,,,,,
0.617977,,,,,,
0.617979,,,,,,
0.61798,,,,,,
0.617982,,,,,,
0.617983,,,,,,
0.61799,,,,,,
0.617991,,,,,,
0.617992,,,,,,
0.617993,,,,,,
0.617994,,,,,,
0.617995,,,,,,
0.618082,,,,,,
0.618209,,,,,,
0.618314,,,,,,
0.618411,,,,,,
0.618533,,,,,,
0.618632,,,,,,
0.618741,,,,,,
0.618866,,,,,,
0.618873,,,,,,
0.618879,,,,,,
0.618887,,,,,,
0.61889,,,,,,
0.618943,,,,,,
0.618945,,,,,,
0.618956,,,,,,
0.618957,,,,,,
0.618958,,,,,,
0.618968,,,,,,
0.618969,,,,,,
0.61897,,,,,,
0.618971,,,,,,
0.618972,,,,,,
0.618977,,,,,,
0.618984,,,,,,
0.619056,,,,,,
0.619159,,,,,,
0.619277,,,,,,
0.619383,,,,,,
0.619495,,,,,,
0.619615,,,,,,
0.619693,,,,,,
0.61981,,,,,,
0.619949,,,,,,
0.61995,,,,,,
0.620052,,,,,,
0.62018,,,,,,
0.620293,,,,,,
0.62041,,,,,,
0.620411,,,,,,
0.620539,,,,,,
0.620673,,,,,,
0.620674,,,,,,
0.620675,,,,,,
0.620676,,,,,,
0.620677,,,,,,
0.620801,,,,,,
0.620949,,,,,,
0.621097,,,,,,
0.621277,,,,,,
0.621424,,,,,,
0.62163,,,,,,
0.621844,,,,,,
0.622088,,,,,,
0.622089,,,,,,
0.622407,,,,,,
0.622763,,,,,,
0.623254,,,,,,
0.62425,,,,,,
0.624252,,,,,,
0.624815,,,,,,
0.624816,,,,,,
0.625256,,,,,,
0.625417,,,,,,
0.625418,,,,,,
0.625553,,,,,,
0.625718,,,,,,
0.625876,,,,,,
0.626016,,,,,,
0.626171,,,,,,
0.626294,,,,,,
0.62645,,,,,,
0.626576,,,,,,
0.626713,,,,,,
0.626843,,,,,,
0.626969,,,,,,
0.6271,,,,,,
0.627209,,,,,,
0.627333,,,,,,
0.62745,,,,,,
0.627552,,,,,,
0.627688,,,,,,
0.627808,,,,,,
0.627809,,,,,,
0.627884,,,,,,
0.628005,,,,,,
0.628115,,,,,,
0.628218,,,,,,
0.628334,,,,,,
0.628439,,,,,,
0.628543,,,,,,
0.628652,,,,,,
0.628762,,,,,,
0.628858,,,,,,
0.628959,,,,,,
0.629079,,,,,,
0.629178,,,,,,
0.629288,,,,,,
0.629408,,,,,,
0.629513,,,,,,
0.629614,,,,,,
0.629727,,,,,,
0.629838,,,,,,
0.629956,,,,,,
0.630076,,,,,,
0.630178,,,,,,
0.630294,,,,,,
0.630409,,,,,,
0.630523,,,,,,
0.630646,,,,,,
0.630803,,,,,,
0.630908,,,,,,
0.631047,,,,,,
0.631206,,,,,,
0.631332,,,,,,
0.631502,,,,,,
0.631643,,,,,,
0.631787,,,,,,
0.631788,,,,,,
0.632002,,,,,,
0.632198,,,,,,
0.632199,,,,,,
0.632394,,,,,,
0.632747,,,,,,
0.633102,,,,,,
0.634377,,,,,,
0.634725,,,,,,
0.634726,,,,,,
0.634727,,,,,,
0.634729,,,,,,
0.63473,,,,,,
0.635084,,,,,,
0.635085,,,,,,
0.635087,,,,,,
0.63529,,,,,,
0.635293,,,,,,
0.635294,,,,,,
0.635295,,,,,,
0.6353,,,,,,
0.635478,,,,,,
0.635696,,,,,,
0.635697,,,,,,
0.635842,,,,,,
0.63599,,,,,,
0.635991,,,,,,
0.635992,,,,,,
0.635993,,,,,,
0.635997,,,,,,
0.635998,,,,,,
0.635999,,,,,,
0.636005,,,,,,
0.636006,,,,,,
0.636007,,,,,,
0.636008,,,,,,
0.636021,,,,,,
0.636022,,,,,,
0.636024,,,,,,
0.636025,,,,,,
0.636027,,,,,,
0.636028,,,,,,
0.63603,,,,,,
0.636031,,,,,,
0.636035,,,,,,
0.636153,,,,,,
0.636277,,,,,,
0.636437,,,,,,
0.636577,,,,,,
0.636691,,,,,,
0.636839,,,,,,
0.636964,,,,,,
0.637089,,,,,,
0.63709,,,,,,
0.637094,,,,,,
0.637095,,,,,,
0.637117,,,,,,
0.637118,,,,,,
0.63712,,,,,,
0.637121,,,,,,
0.637123,,,,,,
0.637125,,,,,,
0.637126,,,,,,
0.637128,,,,,,
0.637129,,,,,,
0.637144,,,,,,
0.637145,,,,,,
0.63716,,,,,,
0.637161,,,,,,
0.637164,,,,,,
0.637165,,,,,,
0.637169,,,,,,
0.63717,,,,,,
0.637178,,,,,,
0.637179,,,,,,
0.63718,,,,,,
0.637184,,,,,,
0.637185,,,,,,
0.637186,,,,,,
0.637191,,,,,,
0.637208,,,,,,
0.637312,,,,,,
0.637416,,,,,,
0.637538,,,,,,
0.637651,,,,,,
0.637767,,,,,,
0.637876,,,,,,
0.637978,,,,,,
0.637979,,,,,,
0.63798,,,,,,
0.637982,,,,,,
0.637983,,,,,,
0.637991,,,,,,
0.637992,,,,,,
0.637993,,,,,,
0.638083,,,,,,
0.63821,,,,,,
0.638314,,,,,,
0.638411,,,,,,
0.638534,,,,,,
0.638633,,,,,,
0.638742,,,,,,
0.63885,,,,,,
0.638851,,,,,,
0.638864,,,,,,
0.63887,,,,,,
0.638877,,,,,,
0.638885,,,,,,
0.638888,,,,,,
0.638898,,,,,,
0.638899,,,,,,
0.638942,,,,,,
0.638943,,,,,,
0.638944,,,,,,
0.638955,,,,,,
0.638957,,,,,,
0.638967,,,,,,
0.638969,,,,,,
0.63897,,,,,,
0.638976,,,,,,
0.638983,,,,,,
0.639056,,,,,,
0.639159,,,,,,
0.639278,,,,,,
0.639383,,,,,,
0.639495,,,,,,
0.639615,,,,,,
0.639694,,,,,,
0.639811,,,,,,
0.639949,,,,,,
0.640052,,,,,,
0.640181,,,,,,
0.640293,,,,,,
0.640411,,,,,,
0.640539,,,,,,
0.640675,,,,,,
0.640676,,,,,,
0.640677,,,,,,
0.640801,,,,,,
0.64095,,,,,,
0.641097,,,,,,
0.641278,,,,,,
0.641425,,,,,,
0.641631,,,,,,
0.641844,,,,,,
0.642087,,,,,,
0.642088,,,,,,
0.642409,,,,,,
0.642763,,,,,,
0.643252,,,,,,
0.644266,,,,,,
0.644268,,,,,,
0.644815,,,,,,
0.644816,,,,,,
0.644817,,,,,,
0.644818,,,,,,
0.645259,,,,,,
0.645418,,,,,,
0.645552,,,,,,
0.645717,,,,,,
0.645876,,,,,,
0.646016,,,,,,
0.646171,,,,,,
0.646294,,,,,,
0.64645,,,,,,
0.646577,,,,,,
0.646714,,,,,,
0.646844,,,,,,
0.646969,,,,,,
0.6471,,,,,,
0.647209,,,,,,
0.647333,,,,,,
0.64745,,,,,,
0.647552,,,,,,
0.647689,,,,,,
0.647809,,,,,,
0.647884,,,,,,
0.648006,,,,,,
0.648115,,,,,,
0.648218,,,,,,
0.648336,,,,,,
0.648439,,,,,,
0.648542,,,,,,
0.648653,,,,,,
0.648763,,,,,,
0.648858,,,,,,
0.64896,,,,,,
0.64908,,,,,,
0.649178,,,,,,
0.649289,,,,,,
0.649408,,,,,,
0.649513,,,,,,
0.649613,,,,,,
0.649727,,,,,,
0.649838,,,,,,
0.649957,,,,,,
0.650077,,,,,,
0.650179,,,,,,
0.65018,,,,,,
0.650294,,,,,,
0.650408,,,,,,
0.650523,,,,,,
0.650646,,,,,,
0.650802,,,,,,
0.650909,,,,,,
0.651047,,,,,,
0.651206,,,,,,
0.651333,,,,,,
0.651503,,,,,,
0.651643,,,,,,
0.651788,,,,,,
0.652001,,,,,,
0.652199,,,,,,
0.652396,,,,,,
0.652749,,,,,,
0.653099,,,,,,
0.654382,,,,,,
0.654731,,,,,,
0.655085,,,,,,
0.655291,,,,,,
0.655482,,,,,,
0.655698,,,,,,
0.655842,,,,,,
0.655991,,,,,,
0.655992,,,,,,
0.655993,,,,,,
0.655994,,,,,,
0.655998,,,,,,
0.655999,,,,,,
0.656,,,,,,
0.656001,,,,,,
0.656002,,,,,,
0.656003,,,,,,
0.656004,,,,,,
0.656035,,,,,,
0.656036,,,,,,
0.65604,,,,,,
0.656155,,,,,,
0.656279,,,,,,
0.65628,,,,,,
0.656438,,,,,,
0.656578,,,,,,
0.656579,,,,,,
0.656693,,,,,,
0.65684,,,,,,
0.656965,,,,,,
0.657089,,,,,,
0.65709,,,,,,
0.657114,,,,,,
0.657115,,,,,,
0.657119,,,,,,
0.65712,,,,,,
0.657122,,,,,,
0.657124,,,,,,
0.657125,,,,,,
0.657131,,,,,,
0.657132,,,,,,
0.657134,,,,,,
0.657135,,,,,,
0.657141,,,,,,
0.657142,,,,,,
0.657154,,,,,,
0.657155,,,,,,
0.657158,,,,,,
0.657159,,,,,,
0.657171,,,,,,
0.657172,,,,,,
0.657176,,,,,,
0.657177,,,,,,
0.657181,,,,,,
0.657182,,,,,,
0.657187,,,,,,
0.657189,,,,,,
0.657192,,,,,,
0.65721,,,,,,
0.657313,,,,,,
0.657417,,,,,,
0.657538,,,,,,
0.657539,,,,,,
0.657651,,,,,,
0.657768,,,,,,
0.657876,,,,,,
0.657978,,,,,,
0.657983,,,,,,
0.657984,,,,,,
0.657993,,,,,,
0.658083,,,,,,
0.65821,,,,,,
0.658314,,,,,,
0.658411,,,,,,
0.658535,,,,,,
0.658633,,,,,,
0.658742,,,,,,
0.658847,,,,,,
0.658848,,,,,,
0.658869,,,,,,
0.658876,,,,,,
0.658882,,,,,,
0.65889,,,,,,
0.658893,,,,,,
0.658934,,,,,,
0.658935,,,,,,
0.658947,,,,,,
0.658949,,,,,,
0.65896,,,,,,
0.658963,,,,,,
0.658972,,,,,,
0.658975,,,,,,
0.65898,,,,,,
0.658982,,,,,,
0.658983,,,,,,
0.65899,,,,,,
0.659056,,,,,,
0.65916,,,,,,
0.659277,,,,,,
0.659383,,,,,,
0.659495,,,,,,
0.659615,,,,,,
0.659693,,,,,,
0.659694,,,,,,
0.659811,,,,,,
0.659949,,,,,,
0.660051,,,,,,
0.66018,,,,,,
0.660292,,,,,,
0.66041,,,,,,
0.660539,,,,,,
0.660669,,,,,,
0.66067,,,,,,
0.660671,,,,,,
0.660672,,,,,,
0.660673,,,,,,
0.660802,,,,,,
0.660949,,,,,,
0.661097,,,,,,
0.661277,,,,,,
0.661425,,,,,,
0.66163,,,,,,
0.661843,,,,,,
0.662089,,,,,,
0.662406,,,,,,
0.662765,,,,,,
0.663248,,,,,,
0.664246,,,,,,
0.664249,,,,,,
0.664818,,,,,,
0.664819,,,,,,
0.66482,,,,,,
0.664821,,,,,,
0.665255,,,,,,
0.665416,,,,,,
0.665554,,,,,,
0.665717,,,,,,
0.665878,,,,,,
0.666016,,,,,,
0.666171,,,,,,
0.666294,,,,,,
0.66645,,,,,,
0.666577,,,,,,
0.666713,,,,,,
0.666844,,,,,,
0.666969,,,,,,
0.667101,,,,,,
0.667209,,,,,,
0.667333,,,,,,
0.66745,,,,,,
0.667553,,,,,,
0.667689,,,,,,
0.667809,,,,,,
0.667884,,,,,,
0.668006,,,,,,
0.668115,,,,,,
0.668218,,,,,,
0.668335,,,,,,
0.668439,,,,,,
0.668542,,,,,,
0.668652,,,,,,
0.668762,,,,,,
0.668858,,,,,,
0.66896,,,,,,
0.66908,,,,,,
0.669179,,,,,,
0.669289,,,,,,
0.669408,,,,,,
0.669513,,,,,,
0.669613,,,,,,
0.669726,,,,,,
0.669838,,,,,,
0.669956,,,,,,
0.670076,,,,,,
0.670178,,,,,,
0.670294,,,,,,
0.670408,,,,,,
0.670523,,,,,,
0.670646,,,,,,
0.670802,,,,,,
0.670908,,,,,,
0.671046,,,,,,
0.671204,,,,,,
0.67133,,,,,,
0.6715,,,,,,
0.671501,,,,,,
0.671641,,,,,,
0.671785,,,,,,
0.672,,,,,,
0.672195,,,,,,
0.672393,,,,,,
0.672744,,,,,,
0.672746,,,,,,
0.672747,,,,,,
0.672748,,,,,,
0.672751,,,,,,
0.672752,,,,,,
0.672753,,,,,,
0.672754,,,,,,
0.672755,,,,,,
0.673091,,,,,,
0.674382,,,,,,
0.674731,,,,,,
0.674732,,,,,,
0.67509,,,,,,
0.675292,,,,,,
0.675293,,,,,,
0.67548,,,,,,
0.675698,,,,,,
0.675699,,,,,,
0.675844,,,,,,
0.675991,,,,,,
0.675992,,,,,,
0.675998,,,,,,
0.675999,,,,,,
0.676,,,,,,
0.676003,,,,,,
0.676004,,,,,,
0.676021,,,,,,
0.676022,,,,,,
0.676036,,,,,,
0.676037,,,,,,
0.676039,,,,,,
0.67604,,,,,,
0.676044,,,,,,
0.676045,,,,,,
0.676047,,,,,,
0.676048,,,,,,
0.676155,,,,,,
0.67628,,,,,,
0.676438,,,,,,
0.676579,,,,,,
0.676692,,,,,,
0.676839,,,,,,
0.676964,,,,,,
0.677115,,,,,,
0.677116,,,,,,
0.677118,,,,,,
0.677119,,,,,,
0.677121,,,,,,
0.677122,,,,,,
0.677124,,,,,,
0.677126,,,,,,
0.677127,,,,,,
0.677129,,,,,,
0.67713,,,,,,
0.677132,,,,,,
0.677133,,,,,,
0.677136,,,,,,
0.677137,,,,,,
0.677165,,,,,,
0.677166,,,,,,
0.677174,,,,,,
0.677175,,,,,,
0.677185,,,,,,
0.677186,,,,,,
0.677192,,,,,,
0.677193,,,,,,
0.677194,,,,,,
0.67721,,,,,,
0.677313,,,,,,
0.677417,,,,,,
0.677538,,,,,,
0.67765,,,,,,
0.677768,,,,,,
0.677875,,,,,,
0.677977,,,,,,
0.677978,,,,,,
0.677979,,,,,,
0.677989,,,,,,
0.67799,,,,,,
0.677991,,,,,,
0.677992,,,,,,
0.677993,,,,,,
0.678083,,,,,,
0.678209,,,,,,
0.678314,,,,,,
0.678411,,,,,,
0.678533,,,,,,
0.678633,,,,,,
0.678742,,,,,,
0.678865,,,,,,
0.678871,,,,,,
0.678877,,,,,,
0.678886,,,,,,
0.678889,,,,,,
0.6789,,,,,,
0.678901,,,,,,
0.678943,,,,,,
0.678944,,,,,,
0.678956,,,,,,
